PE UV       SUBTECH     SPECTRUM    ASCII       PEDS        4.00        
   -1
IP30b50.asc
22/02/11
11:02:52.00
22/02/11
11:02:52.00
user
IP30b50
300.000000
1
Lambda 950
950L1311251
PerkinElmer UV WinLab 7.1.0.68 / 2.02.11 Lambda 900 UV/VIS/NIR, May 23 2018 11:23:04

0
0
3350/servo 860.8/2
0
0
UV/VIS
1
1
1
RBeamAtt,SBeamAtt,multi purpose optical bench
0
0
0
0
Program
Program
3350/servo 860.8/2
3350/1 860.8/1
3350/1 860.8/1
0
4
 
 
 
0
 
860.8
319.2
860.8
Front
100
 
S:100 R:100
 
0
0
0
 
0
 
 
 
0
 
 
0
0
0
0
0
 
 
 
 
0
0


0
0
#HDR
-1
-1
#GR
nm
%T
1.0
0.0
2500.000000
-4.000000
551
8
37.007309
4.323512
#DATA
2500.000000	36.700153
2496.000000	36.451158
2492.000000	36.475223
2488.000000	35.212230
2484.000000	36.590424
2480.000000	36.452530
2476.000000	35.981317
2472.000000	36.348951
2468.000000	35.906438
2464.000000	35.576741
2460.000000	35.111513
2456.000000	35.711698
2452.000000	36.493368
2448.000000	36.199596
2444.000000	36.867464
2440.000000	35.225303
2436.000000	36.829491
2432.000000	35.719087
2428.000000	36.241158
2424.000000	35.956921
2420.000000	36.712866
2416.000000	36.890646
2412.000000	36.173014
2408.000000	36.063930
2404.000000	37.007309
2400.000000	36.922980
2396.000000	35.774270
2392.000000	35.571302
2388.000000	35.847710
2384.000000	35.267433
2380.000000	35.555092
2376.000000	35.239683
2372.000000	35.701655
2368.000000	36.294994
2364.000000	35.943472
2360.000000	35.498942
2356.000000	35.104567
2352.000000	35.419726
2348.000000	35.807200
2344.000000	35.457260
2340.000000	35.261235
2336.000000	34.710890
2332.000000	35.085883
2328.000000	35.368568
2324.000000	35.448219
2320.000000	34.446990
2316.000000	34.862220
2312.000000	35.041990
2308.000000	34.804215
2304.000000	34.844918
2300.000000	34.616292
2296.000000	34.481123
2292.000000	34.447320
2288.000000	34.662288
2284.000000	34.438615
2280.000000	34.595796
2276.000000	34.278167
2272.000000	34.001934
2268.000000	34.557316
2264.000000	34.338228
2260.000000	34.124253
2256.000000	33.930191
2252.000000	34.071102
2248.000000	34.181589
2244.000000	33.847931
2240.000000	33.997771
2236.000000	33.921937
2232.000000	33.894259
2228.000000	33.893896
2224.000000	33.877049
2220.000000	33.832151
2216.000000	33.693769
2212.000000	33.696664
2208.000000	33.675665
2204.000000	33.902155
2200.000000	34.136001
2196.000000	34.001207
2192.000000	33.858476
2188.000000	33.932390
2184.000000	33.965940
2180.000000	34.055121
2176.000000	34.100728
2172.000000	33.905562
2168.000000	34.148487
2164.000000	34.176828
2160.000000	33.969914
2156.000000	34.360090
2152.000000	34.404792
2148.000000	34.469604
2144.000000	34.316970
2140.000000	34.241944
2136.000000	34.197331
2132.000000	34.299176
2128.000000	34.232373
2124.000000	33.959291
2120.000000	34.032636
2116.000000	34.060942
2112.000000	33.904221
2108.000000	33.709201
2104.000000	33.570719
2100.000000	33.637741
2096.000000	33.712759
2092.000000	33.713147
2088.000000	33.456466
2084.000000	33.289778
2080.000000	33.420063
2076.000000	33.375693
2072.000000	33.185639
2068.000000	33.252444
2064.000000	33.256173
2060.000000	33.130898
2056.000000	32.923285
2052.000000	32.908989
2048.000000	32.831830
2044.000000	32.718760
2040.000000	32.685450
2036.000000	32.526276
2032.000000	32.584881
2028.000000	32.768395
2024.000000	32.566832
2020.000000	32.431387
2016.000000	32.359558
2012.000000	32.250857
2008.000000	32.246607
2004.000000	32.201741
2000.000000	32.121633
1996.000000	31.962955
1992.000000	31.921258
1988.000000	31.900602
1984.000000	31.753039
1980.000000	31.590678
1976.000000	31.654591
1972.000000	31.597766
1968.000000	31.520574
1964.000000	31.382214
1960.000000	31.506165
1956.000000	31.494075
1952.000000	31.395167
1948.000000	31.236336
1944.000000	31.372157
1940.000000	31.158781
1936.000000	31.138465
1932.000000	31.117375
1928.000000	31.195420
1924.000000	31.201061
1920.000000	30.980580
1916.000000	30.869774
1912.000000	30.963393
1908.000000	30.888819
1904.000000	30.855240
1900.000000	30.983653
1896.000000	30.892738
1892.000000	30.942961
1888.000000	30.803940
1884.000000	30.801199
1880.000000	30.658858
1876.000000	30.641761
1872.000000	30.535825
1868.000000	30.586728
1864.000000	30.599373
1860.000000	30.559574
1856.000000	30.510712
1852.000000	30.638398
1848.000000	30.400857
1844.000000	30.337611
1840.000000	30.333180
1836.000000	30.115240
1832.000000	30.054144
1828.000000	30.217876
1824.000000	30.038241
1820.000000	29.924137
1816.000000	30.120292
1812.000000	29.911479
1808.000000	29.926650
1804.000000	29.895898
1800.000000	29.854668
1796.000000	29.706244
1792.000000	29.611445
1788.000000	29.737783
1784.000000	29.599361
1780.000000	29.391005
1776.000000	29.550118
1772.000000	29.634347
1768.000000	29.691054
1764.000000	29.605766
1760.000000	29.442806
1756.000000	29.446024
1752.000000	29.450095
1748.000000	29.370719
1744.000000	29.444677
1740.000000	29.402726
1736.000000	29.452515
1732.000000	29.283248
1728.000000	29.282959
1724.000000	29.392643
1720.000000	29.258238
1716.000000	29.312850
1712.000000	29.348257
1708.000000	29.169551
1704.000000	29.050389
1700.000000	29.040135
1696.000000	29.023215
1692.000000	28.993013
1688.000000	28.952438
1684.000000	29.052760
1680.000000	28.909775
1676.000000	29.131819
1672.000000	28.807553
1668.000000	28.901818
1664.000000	28.773321
1660.000000	28.866796
1656.000000	28.729385
1652.000000	28.655804
1648.000000	28.617260
1644.000000	28.693452
1640.000000	28.348213
1636.000000	28.505679
1632.000000	28.496438
1628.000000	28.568555
1624.000000	28.684275
1620.000000	28.469170
1616.000000	28.410249
1612.000000	28.377624
1608.000000	28.326276
1604.000000	28.349904
1600.000000	28.179215
1596.000000	28.264750
1592.000000	28.255496
1588.000000	28.324834
1584.000000	28.100579
1580.000000	28.125027
1576.000000	28.148265
1572.000000	27.982976
1568.000000	27.964469
1564.000000	28.133876
1560.000000	27.899693
1556.000000	27.960717
1552.000000	28.150776
1548.000000	27.908844
1544.000000	27.993475
1540.000000	27.888972
1536.000000	27.890038
1532.000000	27.903288
1528.000000	27.854624
1524.000000	27.897520
1520.000000	27.694620
1516.000000	27.639343
1512.000000	27.708711
1508.000000	27.637004
1504.000000	27.727509
1500.000000	27.727213
1496.000000	27.711925
1492.000000	27.566492
1488.000000	27.594804
1484.000000	27.476665
1480.000000	27.565438
1476.000000	27.583242
1472.000000	27.502785
1468.000000	27.510754
1464.000000	27.498816
1460.000000	27.533865
1456.000000	27.583378
1452.000000	27.397847
1448.000000	27.345303
1444.000000	27.353909
1440.000000	27.433842
1436.000000	27.488184
1432.000000	27.262550
1428.000000	27.330502
1424.000000	27.263507
1420.000000	27.251500
1416.000000	27.249264
1412.000000	27.221850
1408.000000	27.231711
1404.000000	27.089287
1400.000000	27.199935
1396.000000	27.343085
1392.000000	27.276108
1388.000000	27.169473
1384.000000	27.089407
1380.000000	27.100275
1376.000000	27.179669
1372.000000	27.212329
1368.000000	27.191155
1364.000000	27.232512
1360.000000	27.082113
1356.000000	27.041590
1352.000000	27.106579
1348.000000	27.070071
1344.000000	27.010965
1340.000000	26.999633
1336.000000	27.005961
1332.000000	27.007330
1328.000000	27.038475
1324.000000	26.908441
1320.000000	26.907619
1316.000000	27.006636
1312.000000	26.942938
1308.000000	26.860273
1304.000000	26.962871
1300.000000	26.826980
1296.000000	26.752363
1292.000000	26.806401
1288.000000	26.790916
1284.000000	26.853236
1280.000000	26.785989
1276.000000	26.742748
1272.000000	26.784584
1268.000000	26.698986
1264.000000	26.749577
1260.000000	26.753988
1256.000000	26.653403
1252.000000	26.721286
1248.000000	26.687600
1244.000000	26.643611
1240.000000	26.576528
1236.000000	26.479201
1232.000000	26.493459
1228.000000	26.537495
1224.000000	26.612987
1220.000000	26.613393
1216.000000	26.557823
1212.000000	26.514667
1208.000000	26.497883
1204.000000	26.525981
1200.000000	26.512285
1196.000000	26.439319
1192.000000	26.434656
1188.000000	26.371581
1184.000000	26.365479
1180.000000	26.403857
1176.000000	26.652681
1172.000000	26.478744
1168.000000	26.449235
1164.000000	26.381595
1160.000000	26.386578
1156.000000	26.401839
1152.000000	26.227648
1148.000000	26.243480
1144.000000	26.205524
1140.000000	26.220119
1136.000000	26.184878
1132.000000	26.273958
1128.000000	26.319485
1124.000000	26.179741
1120.000000	26.111910
1116.000000	26.118600
1112.000000	26.079246
1108.000000	26.057342
1104.000000	26.132636
1100.000000	26.088190
1096.000000	25.861104
1092.000000	25.991149
1088.000000	26.068848
1084.000000	26.147998
1080.000000	26.030569
1076.000000	25.883328
1072.000000	25.933289
1068.000000	26.124390
1064.000000	26.065337
1060.000000	25.989602
1056.000000	25.925260
1052.000000	25.955798
1048.000000	25.863665
1044.000000	25.804286
1040.000000	25.992875
1036.000000	25.899999
1032.000000	25.668337
1028.000000	25.734792
1024.000000	25.818287
1020.000000	25.771177
1016.000000	25.854883
1012.000000	25.822534
1008.000000	25.770311
1004.000000	25.803258
1000.000000	25.688013
996.000000	25.747369
992.000000	25.937820
988.000000	25.781954
984.000000	25.672559
980.000000	25.763681
976.000000	25.647590
972.000000	25.689837
968.000000	25.790543
964.000000	25.694594
960.000000	25.847274
956.000000	25.747120
952.000000	25.718703
948.000000	25.729857
944.000000	25.981128
940.000000	25.820901
936.000000	25.643498
932.000000	25.706493
928.000000	25.649373
924.000000	25.873640
920.000000	25.716046
916.000000	25.870389
912.000000	25.736678
908.000000	25.589735
904.000000	25.720102
900.000000	25.903724
896.000000	25.841506
892.000000	25.927896
888.000000	25.752949
884.000000	25.764169
880.000000	25.746152
876.000000	25.868932
872.000000	25.841345
868.000000	25.881543
864.000000	25.873292
860.000000	25.601158
856.000000	25.522105
852.000000	25.482011
848.000000	25.577835
844.000000	25.454443
840.000000	25.633491
836.000000	25.508408
832.000000	25.419375
828.000000	25.386099
824.000000	25.366753
820.000000	25.385895
816.000000	25.392052
812.000000	25.386302
808.000000	25.366096
804.000000	25.348368
800.000000	25.367773
796.000000	25.306433
792.000000	25.309677
788.000000	25.220317
784.000000	25.240830
780.000000	25.187440
776.000000	25.157582
772.000000	25.138448
768.000000	25.091849
764.000000	25.063931
760.000000	25.051235
756.000000	24.986901
752.000000	24.958243
748.000000	24.918126
744.000000	24.874765
740.000000	24.809225
736.000000	24.769099
732.000000	24.725687
728.000000	24.656572
724.000000	24.614992
720.000000	24.543110
716.000000	24.501881
712.000000	24.439031
708.000000	24.411638
704.000000	24.343779
700.000000	24.266725
696.000000	24.196718
692.000000	24.131762
688.000000	24.059749
684.000000	24.012961
680.000000	23.957522
676.000000	23.870442
672.000000	23.821339
668.000000	23.745777
664.000000	23.659544
660.000000	23.620220
656.000000	23.529452
652.000000	23.471353
648.000000	23.389895
644.000000	23.327246
640.000000	23.241071
636.000000	23.154823
632.000000	23.079509
628.000000	22.972279
624.000000	22.890375
620.000000	22.802503
616.000000	22.706052
612.000000	22.585528
608.000000	22.476402
604.000000	22.340024
600.000000	22.214840
596.000000	22.076628
592.000000	21.930280
588.000000	21.774925
584.000000	21.603389
580.000000	21.434801
576.000000	21.236528
572.000000	21.033562
568.000000	20.825122
564.000000	20.613550
560.000000	20.380842
556.000000	20.131744
552.000000	19.889901
548.000000	19.630596
544.000000	19.370728
540.000000	19.098609
536.000000	18.837558
532.000000	18.563665
528.000000	18.282608
524.000000	18.018213
520.000000	17.742014
516.000000	17.472002
512.000000	17.207986
508.000000	16.947842
504.000000	16.703350
500.000000	16.475168
496.000000	16.263279
492.000000	16.060493
488.000000	15.883891
484.000000	15.706831
480.000000	15.527962
476.000000	15.376759
472.000000	15.242786
468.000000	15.133824
464.000000	15.018839
460.000000	14.904653
456.000000	14.784742
452.000000	14.668484
448.000000	14.529734
444.000000	14.388699
440.000000	14.210248
436.000000	14.043333
432.000000	13.873804
428.000000	13.703422
424.000000	13.560864
420.000000	13.410401
416.000000	13.279682
412.000000	13.135810
408.000000	13.000109
404.000000	12.853720
400.000000	12.702447
396.000000	12.521045
392.000000	12.343639
388.000000	12.182079
384.000000	12.003515
380.000000	11.792436
376.000000	11.577355
372.000000	11.358804
368.000000	11.058307
364.000000	10.623461
360.000000	10.062859
356.000000	9.306055
352.000000	8.320398
348.000000	7.184053
344.000000	6.091869
340.000000	5.275167
336.000000	4.925787
332.000000	4.823245
328.000000	4.794320
324.000000	4.769975
320.000000	4.662538
316.000000	4.455486
312.000000	4.408685
308.000000	4.388275
304.000000	4.360128
300.000000	4.323512
