PE UV       SUBTECH     SPECTRUM    ASCII       PEDS        4.00        
   -1
SB30b50.asc
22/02/11
11:20:57.00
22/02/11
11:20:57.00
user
SB30b50
300.000000
1
Lambda 950
950L1311251
PerkinElmer UV WinLab 7.1.0.68 / 2.02.11 Lambda 900 UV/VIS/NIR, May 23 2018 11:23:04

0
0
3350/servo 860.8/2
0
0
UV/VIS
1
1
1
RBeamAtt,SBeamAtt,multi purpose optical bench
0
0
0
0
Program
Program
3350/servo 860.8/2
3350/1 860.8/1
3350/1 860.8/1
0
4
 
 
 
0
 
860.8
319.2
860.8
Front
100
 
S:100 R:100
 
0
0
0
 
0
 
 
 
0
 
 
0
0
0
0
0
 
 
 
 
0
0


0
0
#HDR
-1
-1
#GR
nm
%T
1.0
0.0
2500.000000
-4.000000
551
8
33.414590
3.067281
#DATA
2500.000000	33.081227
2496.000000	31.972133
2492.000000	31.979438
2488.000000	32.144473
2484.000000	31.591208
2480.000000	31.809273
2476.000000	33.414590
2472.000000	32.236970
2468.000000	31.564983
2464.000000	31.492314
2460.000000	31.766220
2456.000000	32.928770
2452.000000	32.109865
2448.000000	32.183860
2444.000000	32.977869
2440.000000	31.884427
2436.000000	32.584900
2432.000000	32.397982
2428.000000	31.581884
2424.000000	32.886726
2420.000000	32.114329
2416.000000	32.725385
2412.000000	32.235618
2408.000000	32.322096
2404.000000	32.549575
2400.000000	32.171111
2396.000000	32.023152
2392.000000	31.697836
2388.000000	32.031733
2384.000000	32.029931
2380.000000	32.011191
2376.000000	31.910190
2372.000000	31.756865
2368.000000	32.133586
2364.000000	31.096218
2360.000000	31.337915
2356.000000	31.336801
2352.000000	31.213771
2348.000000	31.865299
2344.000000	31.638458
2340.000000	31.217347
2336.000000	31.010271
2332.000000	31.583656
2328.000000	31.219740
2324.000000	31.009659
2320.000000	30.863403
2316.000000	31.037246
2312.000000	31.225627
2308.000000	30.922181
2304.000000	30.578311
2300.000000	30.525465
2296.000000	30.764959
2292.000000	30.761866
2288.000000	30.736655
2284.000000	30.781322
2280.000000	30.504492
2276.000000	30.629817
2272.000000	30.372248
2268.000000	30.380335
2264.000000	30.610960
2260.000000	30.400016
2256.000000	30.239455
2252.000000	30.435060
2248.000000	30.324877
2244.000000	30.255040
2240.000000	30.498024
2236.000000	30.267479
2232.000000	30.181547
2228.000000	30.194848
2224.000000	30.371749
2220.000000	30.210465
2216.000000	30.197473
2212.000000	30.293419
2208.000000	30.033668
2204.000000	30.027832
2200.000000	30.439614
2196.000000	30.324524
2192.000000	30.323471
2188.000000	30.484511
2184.000000	30.452741
2180.000000	30.486222
2176.000000	30.547056
2172.000000	30.429591
2168.000000	30.566208
2164.000000	30.566284
2160.000000	30.735024
2156.000000	30.914383
2152.000000	30.630910
2148.000000	30.624534
2144.000000	30.669562
2140.000000	30.651123
2136.000000	30.387341
2132.000000	30.507217
2128.000000	30.527705
2124.000000	30.372084
2120.000000	30.459184
2116.000000	30.511321
2112.000000	30.511359
2108.000000	30.369821
2104.000000	30.345100
2100.000000	30.300086
2096.000000	30.151602
2092.000000	30.065854
2088.000000	30.037187
2084.000000	29.981621
2080.000000	30.033256
2076.000000	29.963661
2072.000000	29.830809
2068.000000	29.882818
2064.000000	29.849033
2060.000000	29.739855
2056.000000	29.731623
2052.000000	29.649439
2048.000000	29.670235
2044.000000	29.444459
2040.000000	29.279401
2036.000000	29.407940
2032.000000	29.413573
2028.000000	29.415442
2024.000000	29.313791
2020.000000	29.354721
2016.000000	29.366440
2012.000000	29.236841
2008.000000	29.197225
2004.000000	29.077592
2000.000000	29.042232
1996.000000	29.109277
1992.000000	28.908888
1988.000000	28.920050
1984.000000	28.848570
1980.000000	28.827868
1976.000000	28.882116
1972.000000	28.917428
1968.000000	28.825738
1964.000000	28.663558
1960.000000	28.641051
1956.000000	28.612562
1952.000000	28.590261
1948.000000	28.592041
1944.000000	28.540975
1940.000000	28.370663
1936.000000	28.338735
1932.000000	28.294000
1928.000000	28.187256
1924.000000	28.242718
1920.000000	28.223454
1916.000000	28.124694
1912.000000	28.234101
1908.000000	28.165700
1904.000000	27.958583
1900.000000	28.132229
1896.000000	28.098252
1892.000000	28.079327
1888.000000	28.158613
1884.000000	28.063050
1880.000000	28.094312
1876.000000	27.957775
1872.000000	27.887571
1868.000000	27.852517
1864.000000	27.961316
1860.000000	27.847237
1856.000000	27.983290
1852.000000	27.859733
1848.000000	27.850027
1844.000000	27.835895
1840.000000	27.882437
1836.000000	27.726669
1832.000000	27.582409
1828.000000	27.695999
1824.000000	27.541247
1820.000000	27.525082
1816.000000	27.613515
1812.000000	27.540847
1808.000000	27.599210
1804.000000	27.449889
1800.000000	27.480170
1796.000000	27.448085
1792.000000	27.290576
1788.000000	27.265133
1784.000000	27.287862
1780.000000	27.280612
1776.000000	27.356611
1772.000000	27.260578
1768.000000	27.322805
1764.000000	27.510509
1760.000000	27.248268
1756.000000	27.275858
1752.000000	27.074652
1748.000000	27.152365
1744.000000	27.342614
1740.000000	27.068565
1736.000000	27.295259
1732.000000	27.273082
1728.000000	27.120910
1724.000000	27.265701
1720.000000	26.948412
1716.000000	27.142692
1712.000000	27.248060
1708.000000	26.929971
1704.000000	26.951756
1700.000000	27.019507
1696.000000	27.031944
1692.000000	27.117594
1688.000000	26.940792
1684.000000	26.980009
1680.000000	26.926023
1676.000000	26.831111
1672.000000	26.770914
1668.000000	26.882140
1664.000000	26.871818
1660.000000	26.781705
1656.000000	26.920508
1652.000000	26.718826
1648.000000	26.836482
1644.000000	26.701679
1640.000000	26.469480
1636.000000	26.652318
1632.000000	26.629918
1628.000000	26.555696
1624.000000	26.652951
1620.000000	26.609909
1616.000000	26.635862
1612.000000	26.548490
1608.000000	26.593702
1604.000000	26.458869
1600.000000	26.495086
1596.000000	26.594391
1592.000000	26.396777
1588.000000	26.423976
1584.000000	26.434227
1580.000000	26.365843
1576.000000	26.345795
1572.000000	26.165158
1568.000000	26.098443
1564.000000	26.317263
1560.000000	26.307262
1556.000000	26.368794
1552.000000	26.321442
1548.000000	26.307026
1544.000000	26.306833
1540.000000	26.184734
1536.000000	26.212435
1532.000000	26.215792
1528.000000	26.241804
1524.000000	26.219820
1520.000000	26.161754
1516.000000	26.158658
1512.000000	26.113280
1508.000000	26.076695
1504.000000	26.264763
1500.000000	26.320986
1496.000000	26.113783
1492.000000	25.938980
1488.000000	26.049930
1484.000000	26.085685
1480.000000	26.023452
1476.000000	25.974999
1472.000000	25.983968
1468.000000	26.091995
1464.000000	25.987415
1460.000000	25.936998
1456.000000	25.930096
1452.000000	25.925813
1448.000000	25.911988
1444.000000	25.953266
1440.000000	26.013351
1436.000000	25.970595
1432.000000	25.810699
1428.000000	25.886052
1424.000000	25.852754
1420.000000	25.814355
1416.000000	25.818920
1412.000000	25.857214
1408.000000	25.877047
1404.000000	25.805937
1400.000000	25.901025
1396.000000	25.954562
1392.000000	25.786971
1388.000000	25.775984
1384.000000	25.867462
1380.000000	25.835369
1376.000000	25.809094
1372.000000	25.878826
1368.000000	25.927400
1364.000000	25.828612
1360.000000	25.739863
1356.000000	25.737149
1352.000000	25.815825
1348.000000	25.857805
1344.000000	25.767369
1340.000000	25.784588
1336.000000	25.828996
1332.000000	25.757803
1328.000000	25.819094
1324.000000	25.782175
1320.000000	25.829911
1316.000000	25.827226
1312.000000	25.850858
1308.000000	25.780352
1304.000000	25.709237
1300.000000	25.692981
1296.000000	25.698408
1292.000000	25.759958
1288.000000	25.701241
1284.000000	25.730420
1280.000000	25.760853
1276.000000	25.597345
1272.000000	25.666874
1268.000000	25.642811
1264.000000	25.588436
1260.000000	25.583617
1256.000000	25.707082
1252.000000	25.606396
1248.000000	25.504848
1244.000000	25.628812
1240.000000	25.659024
1236.000000	25.575939
1232.000000	25.517094
1228.000000	25.572599
1224.000000	25.464208
1220.000000	25.499727
1216.000000	25.673223
1212.000000	25.475797
1208.000000	25.465368
1204.000000	25.613355
1200.000000	25.514357
1196.000000	25.548140
1192.000000	25.530306
1188.000000	25.520335
1184.000000	25.422985
1180.000000	25.500173
1176.000000	25.435053
1172.000000	25.360235
1168.000000	25.471794
1164.000000	25.504501
1160.000000	25.490211
1156.000000	25.515249
1152.000000	25.435211
1148.000000	25.229328
1144.000000	25.292225
1140.000000	25.350694
1136.000000	25.414759
1132.000000	25.341872
1128.000000	25.387668
1124.000000	25.408799
1120.000000	25.283615
1116.000000	25.345057
1112.000000	25.189647
1108.000000	25.085956
1104.000000	25.286577
1100.000000	25.254905
1096.000000	25.269914
1092.000000	25.187222
1088.000000	25.153568
1084.000000	25.286523
1080.000000	25.097544
1076.000000	25.082880
1072.000000	25.256812
1068.000000	25.176052
1064.000000	25.234946
1060.000000	25.107189
1056.000000	25.103120
1052.000000	25.155338
1048.000000	25.206849
1044.000000	24.942432
1040.000000	25.037944
1036.000000	24.955042
1032.000000	24.972603
1028.000000	24.935587
1024.000000	25.074029
1020.000000	25.037404
1016.000000	24.959195
1012.000000	25.076046
1008.000000	25.019480
1004.000000	25.105401
1000.000000	25.004670
996.000000	24.846973
992.000000	25.326065
988.000000	25.004392
984.000000	25.043026
980.000000	24.777873
976.000000	24.985030
972.000000	25.099485
968.000000	25.150691
964.000000	24.769637
960.000000	25.052098
956.000000	25.031184
952.000000	24.872483
948.000000	24.868667
944.000000	25.195273
940.000000	24.966694
936.000000	24.904531
932.000000	24.851626
928.000000	24.871439
924.000000	25.067245
920.000000	24.853947
916.000000	24.950476
912.000000	24.857906
908.000000	24.829556
904.000000	25.109810
900.000000	25.056864
896.000000	24.969986
892.000000	24.895792
888.000000	24.912160
884.000000	24.787158
880.000000	24.694046
876.000000	24.817981
872.000000	24.764352
868.000000	24.927608
864.000000	24.743904
860.000000	24.625442
856.000000	24.581257
852.000000	24.569289
848.000000	24.643696
844.000000	24.512958
840.000000	24.526058
836.000000	24.583739
832.000000	24.569140
828.000000	24.557533
824.000000	24.493014
820.000000	24.512676
816.000000	24.506244
812.000000	24.472513
808.000000	24.490970
804.000000	24.445506
800.000000	24.416843
796.000000	24.404246
792.000000	24.421684
788.000000	24.352250
784.000000	24.374952
780.000000	24.318688
776.000000	24.267239
772.000000	24.261808
768.000000	24.224959
764.000000	24.183970
760.000000	24.152779
756.000000	24.147469
752.000000	24.105860
748.000000	24.069919
744.000000	24.022745
740.000000	23.986200
736.000000	23.926573
732.000000	23.903933
728.000000	23.845891
724.000000	23.807753
720.000000	23.757491
716.000000	23.715565
712.000000	23.670132
708.000000	23.611617
704.000000	23.567529
700.000000	23.514060
696.000000	23.435735
692.000000	23.377526
688.000000	23.332759
684.000000	23.298721
680.000000	23.235442
676.000000	23.164045
672.000000	23.099771
668.000000	23.045093
664.000000	23.006459
660.000000	22.943582
656.000000	22.863017
652.000000	22.808940
648.000000	22.744237
644.000000	22.672467
640.000000	22.604018
636.000000	22.521334
632.000000	22.435833
628.000000	22.356718
624.000000	22.290397
620.000000	22.197764
616.000000	22.094293
612.000000	22.000311
608.000000	21.887885
604.000000	21.769422
600.000000	21.641857
596.000000	21.492769
592.000000	21.343837
588.000000	21.187259
584.000000	21.010174
580.000000	20.818319
576.000000	20.611600
572.000000	20.374002
568.000000	20.138365
564.000000	19.884982
560.000000	19.609199
556.000000	19.323521
552.000000	19.032971
548.000000	18.738852
544.000000	18.440870
540.000000	18.137318
536.000000	17.827888
532.000000	17.527207
528.000000	17.236025
524.000000	16.951543
520.000000	16.675913
516.000000	16.410962
512.000000	16.161235
508.000000	15.930965
504.000000	15.713423
500.000000	15.509762
496.000000	15.312298
492.000000	15.129390
488.000000	14.961368
484.000000	14.801806
480.000000	14.644943
476.000000	14.509169
472.000000	14.388434
468.000000	14.277591
464.000000	14.157254
460.000000	14.038283
456.000000	13.908493
452.000000	13.764311
448.000000	13.616775
444.000000	13.448126
440.000000	13.282146
436.000000	13.107406
432.000000	12.943640
428.000000	12.784830
424.000000	12.643524
420.000000	12.498317
416.000000	12.358993
412.000000	12.220531
408.000000	12.086896
404.000000	11.946737
400.000000	11.803802
396.000000	11.632842
392.000000	11.477460
388.000000	11.294996
384.000000	11.116252
380.000000	10.920742
376.000000	10.694084
372.000000	10.451128
368.000000	10.105047
364.000000	9.635239
360.000000	9.028809
356.000000	8.182883
352.000000	7.081285
348.000000	5.793500
344.000000	4.537608
340.000000	3.618039
336.000000	3.210043
332.000000	3.104573
328.000000	3.084962
324.000000	3.067281
320.000000	3.075207
316.000000	3.105379
312.000000	3.096746
308.000000	3.098810
304.000000	3.101709
300.000000	3.115547
