PE UV       SUBTECH     SPECTRUM    ASCII       PEDS        4.00        
   -1
ZeroLine.asc
22/02/11
09:56:05.00
22/02/11
09:56:05.00
user
zeroline
300.000000
1
Lambda 950
950L1311251
PerkinElmer UV WinLab 7.1.0.68 / 2.02.11 Lambda 900 UV/VIS/NIR, May 23 2018 11:23:04

0
0
3350/servo 860.8/2
0
0
UV/VIS
1
1
1
RBeamAtt,SBeamAtt,multi purpose optical bench
0
0
0
0
Program
Program
3350/servo 860.8/2
3350/1 860.8/1
3350/1 860.8/1
0
4
 
 
 
0
 
860.8
319.2
860.8
Front
100
 
S:100 R:100
 
0
0
0
 
0
 
 
 
0
 
 
0
0
0
0
0
 
 
 
 
0
0


0
0
#HDR
-1
-1
#GR
nm
%T
1.0
0.0
2500.000000
-4.000000
551
8
2.537880
0.372313
#DATA
2500.000000	1.230934
2496.000000	0.810109
2492.000000	0.685355
2488.000000	1.502363
2484.000000	0.741477
2480.000000	1.628008
2476.000000	0.962701
2472.000000	2.278885
2468.000000	1.705239
2464.000000	0.557650
2460.000000	0.872384
2456.000000	1.517039
2452.000000	0.847690
2448.000000	1.651789
2444.000000	2.358091
2440.000000	0.846508
2436.000000	1.167563
2432.000000	1.576388
2428.000000	1.236815
2424.000000	1.845625
2420.000000	1.684998
2416.000000	2.537880
2412.000000	2.012271
2408.000000	0.583871
2404.000000	1.951165
2400.000000	2.005596
2396.000000	0.542770
2392.000000	1.444789
2388.000000	1.398277
2384.000000	1.529887
2380.000000	1.665157
2376.000000	1.923224
2372.000000	1.571601
2368.000000	1.520830
2364.000000	0.425699
2360.000000	1.090065
2356.000000	1.106667
2352.000000	1.688541
2348.000000	1.822705
2344.000000	1.254778
2340.000000	0.906278
2336.000000	0.721492
2332.000000	2.171273
2328.000000	2.067032
2324.000000	1.663643
2320.000000	1.278770
2316.000000	1.395618
2312.000000	1.164422
2308.000000	1.450739
2304.000000	1.293224
2300.000000	1.013933
2296.000000	0.372313
2292.000000	1.369030
2288.000000	1.545344
2284.000000	1.147697
2280.000000	1.409684
2276.000000	1.337126
2272.000000	1.257956
2268.000000	1.356964
2264.000000	1.112215
2260.000000	1.180297
2256.000000	1.267220
2252.000000	1.259194
2248.000000	1.208733
2244.000000	1.383704
2240.000000	1.513843
2236.000000	1.401760
2232.000000	1.393571
2228.000000	1.162835
2224.000000	1.451574
2220.000000	1.312847
2216.000000	1.139058
2212.000000	1.257837
2208.000000	1.315404
2204.000000	1.487709
2200.000000	1.474813
2196.000000	1.155382
2192.000000	0.968176
2188.000000	1.140042
2184.000000	1.129756
2180.000000	1.212318
2176.000000	1.197410
2172.000000	1.065424
2168.000000	1.447921
2164.000000	1.207913
2160.000000	1.191712
2156.000000	1.522484
2152.000000	1.371915
2148.000000	1.170759
2144.000000	1.070188
2140.000000	1.240625
2136.000000	1.421281
2132.000000	1.448812
2128.000000	1.415792
2124.000000	1.308347
2120.000000	1.361944
2116.000000	1.460536
2112.000000	1.548828
2108.000000	1.384115
2104.000000	1.231652
2100.000000	1.289149
2096.000000	1.447852
2092.000000	1.540921
2088.000000	1.343946
2084.000000	1.316630
2080.000000	1.421406
2076.000000	1.402224
2072.000000	1.291226
2068.000000	1.231305
2064.000000	1.329217
2060.000000	1.443774
2056.000000	1.336431
2052.000000	1.329252
2048.000000	1.460739
2044.000000	1.203373
2040.000000	1.036346
2036.000000	1.173553
2032.000000	1.337011
2028.000000	1.575384
2024.000000	1.364317
2020.000000	1.242013
2016.000000	1.397846
2012.000000	1.394865
2008.000000	1.304128
2004.000000	1.255949
2000.000000	1.310858
1996.000000	1.340314
1992.000000	1.246514
1988.000000	1.414918
1984.000000	1.235035
1980.000000	1.068635
1976.000000	1.230139
1972.000000	1.272561
1968.000000	1.269182
1964.000000	1.215302
1960.000000	1.401241
1956.000000	1.299072
1952.000000	1.300111
1948.000000	1.130224
1944.000000	1.226246
1940.000000	1.048392
1936.000000	1.026123
1932.000000	1.197188
1928.000000	1.277720
1924.000000	1.175618
1920.000000	1.124802
1916.000000	1.070491
1912.000000	1.145786
1908.000000	1.286399
1904.000000	0.904695
1900.000000	1.377260
1896.000000	1.198887
1892.000000	1.294917
1888.000000	1.390056
1884.000000	1.126285
1880.000000	1.189456
1876.000000	1.195106
1872.000000	1.060174
1868.000000	1.481059
1864.000000	1.190778
1860.000000	1.269067
1856.000000	1.231489
1852.000000	1.230949
1848.000000	1.049599
1844.000000	1.233289
1840.000000	1.325615
1836.000000	1.319089
1832.000000	1.226895
1828.000000	1.201663
1824.000000	1.104641
1820.000000	1.253044
1816.000000	1.277816
1812.000000	1.256211
1808.000000	1.202113
1804.000000	1.206729
1800.000000	1.279833
1796.000000	1.138653
1792.000000	0.976912
1788.000000	1.194411
1784.000000	1.012640
1780.000000	0.987099
1776.000000	1.219830
1772.000000	1.147220
1768.000000	1.260079
1764.000000	1.467118
1760.000000	0.985991
1756.000000	1.205140
1752.000000	1.292178
1748.000000	0.837871
1744.000000	1.405435
1740.000000	0.988410
1736.000000	1.046849
1732.000000	1.206385
1728.000000	1.258407
1724.000000	1.442266
1720.000000	1.088603
1716.000000	1.261161
1712.000000	1.315243
1708.000000	1.317854
1704.000000	1.115861
1700.000000	1.145334
1696.000000	1.282205
1692.000000	1.357033
1688.000000	1.091696
1684.000000	1.111084
1680.000000	1.070185
1676.000000	1.317497
1672.000000	1.288041
1668.000000	1.267850
1664.000000	1.298882
1660.000000	1.173649
1656.000000	1.172669
1652.000000	1.195929
1648.000000	1.096231
1644.000000	1.349056
1640.000000	1.018398
1636.000000	1.211967
1632.000000	1.211256
1628.000000	1.100870
1624.000000	1.222260
1620.000000	1.178793
1616.000000	1.265925
1612.000000	1.042330
1608.000000	1.156862
1604.000000	1.229930
1600.000000	1.296378
1596.000000	1.219310
1592.000000	1.121289
1588.000000	1.137600
1584.000000	1.122107
1580.000000	1.270098
1576.000000	1.065226
1572.000000	1.039884
1568.000000	1.002826
1564.000000	1.151290
1560.000000	1.083842
1556.000000	1.221777
1552.000000	1.330312
1548.000000	1.166294
1544.000000	1.261218
1540.000000	1.128100
1536.000000	1.220317
1532.000000	1.105716
1528.000000	1.094179
1524.000000	1.217770
1520.000000	1.183937
1516.000000	1.070734
1512.000000	1.054789
1508.000000	0.994415
1504.000000	1.178169
1500.000000	1.234460
1496.000000	1.112807
1492.000000	0.953619
1488.000000	1.067960
1484.000000	1.130517
1480.000000	1.062673
1476.000000	1.162428
1472.000000	1.058408
1468.000000	1.065663
1464.000000	1.123323
1460.000000	1.055182
1456.000000	1.194444
1452.000000	1.159378
1448.000000	1.159443
1444.000000	1.126563
1440.000000	0.998638
1436.000000	1.096078
1432.000000	0.894949
1428.000000	0.972543
1424.000000	1.029502
1420.000000	0.994427
1416.000000	1.080755
1412.000000	1.052801
1408.000000	1.147401
1404.000000	1.145163
1400.000000	1.053086
1396.000000	1.169622
1392.000000	1.194402
1388.000000	1.128773
1384.000000	1.126752
1380.000000	1.175869
1376.000000	1.199241
1372.000000	1.138757
1368.000000	1.186836
1364.000000	1.195609
1360.000000	1.034680
1356.000000	0.927748
1352.000000	1.023308
1348.000000	1.030735
1344.000000	1.016136
1340.000000	1.035575
1336.000000	1.082431
1332.000000	1.049493
1328.000000	1.134175
1324.000000	1.137674
1320.000000	1.107468
1316.000000	1.161645
1312.000000	1.074113
1308.000000	1.014612
1304.000000	1.170692
1300.000000	1.049964
1296.000000	1.028297
1292.000000	1.233003
1288.000000	1.126716
1284.000000	1.061678
1280.000000	1.025991
1276.000000	1.089562
1272.000000	1.251786
1268.000000	1.180526
1264.000000	1.157148
1260.000000	1.034436
1256.000000	0.988011
1252.000000	1.084124
1248.000000	1.038435
1244.000000	1.013185
1240.000000	1.148445
1236.000000	1.106895
1232.000000	0.960049
1228.000000	0.909762
1224.000000	1.153049
1220.000000	1.142599
1216.000000	1.103212
1212.000000	1.035834
1208.000000	0.968553
1204.000000	0.983908
1200.000000	1.063945
1196.000000	1.094059
1192.000000	1.049538
1188.000000	1.031437
1184.000000	1.090925
1180.000000	1.048179
1176.000000	1.255151
1172.000000	1.053283
1168.000000	1.031701
1164.000000	1.140912
1160.000000	1.165419
1156.000000	1.179412
1152.000000	1.008978
1148.000000	0.983984
1144.000000	1.016824
1140.000000	1.125471
1136.000000	1.054368
1132.000000	1.072310
1128.000000	1.143419
1124.000000	1.057484
1120.000000	1.088228
1116.000000	1.172246
1112.000000	1.149918
1108.000000	0.849502
1104.000000	0.922089
1100.000000	1.085315
1096.000000	1.072304
1092.000000	1.036308
1088.000000	0.951858
1084.000000	1.147598
1080.000000	1.021145
1076.000000	0.882104
1072.000000	1.034690
1068.000000	1.080407
1064.000000	1.042313
1060.000000	0.937288
1056.000000	0.969166
1052.000000	1.076064
1048.000000	1.137518
1044.000000	0.791428
1040.000000	1.198729
1036.000000	1.164313
1032.000000	0.926427
1028.000000	0.820957
1024.000000	1.068295
1020.000000	1.211796
1016.000000	1.002065
1012.000000	0.965351
1008.000000	0.940265
1004.000000	1.051120
1000.000000	1.053360
996.000000	1.077043
992.000000	1.322824
988.000000	0.928147
984.000000	1.000213
980.000000	1.005398
976.000000	0.983736
972.000000	1.191138
968.000000	0.998717
964.000000	1.071304
960.000000	1.053313
956.000000	0.819820
952.000000	1.005415
948.000000	1.091190
944.000000	1.369477
940.000000	0.906322
936.000000	1.334055
932.000000	0.924792
928.000000	1.095549
924.000000	1.277452
920.000000	0.903477
916.000000	1.154834
912.000000	1.132954
908.000000	1.107209
904.000000	0.980588
900.000000	1.026982
896.000000	1.030723
892.000000	1.112092
888.000000	1.113331
884.000000	0.933489
880.000000	0.706447
876.000000	1.124186
872.000000	0.966341
868.000000	1.125914
864.000000	1.143318
860.000000	1.035301
856.000000	0.946545
852.000000	0.948476
848.000000	0.976988
844.000000	1.009807
840.000000	0.984216
836.000000	0.998066
832.000000	1.008502
828.000000	0.985940
824.000000	0.995200
820.000000	0.992512
816.000000	0.995587
812.000000	1.005302
808.000000	0.998940
804.000000	0.996299
800.000000	0.988833
796.000000	0.992600
792.000000	0.997344
788.000000	0.991968
784.000000	0.989188
780.000000	0.990374
776.000000	0.988061
772.000000	0.991433
768.000000	0.990464
764.000000	0.990959
760.000000	0.990920
756.000000	0.988141
752.000000	0.986744
748.000000	0.987802
744.000000	0.984877
740.000000	0.983796
736.000000	0.982560
732.000000	0.982074
728.000000	0.980951
724.000000	0.983126
720.000000	0.986447
716.000000	0.982463
712.000000	0.985363
708.000000	0.983637
704.000000	0.982557
700.000000	0.984568
696.000000	0.982623
692.000000	0.981676
688.000000	0.982826
684.000000	0.981019
680.000000	0.980962
676.000000	0.976988
672.000000	0.975999
668.000000	0.977789
664.000000	0.980320
660.000000	0.977963
656.000000	0.975997
652.000000	0.977148
648.000000	0.977214
644.000000	0.975949
640.000000	0.976768
636.000000	0.975713
632.000000	0.977753
628.000000	0.974532
624.000000	0.974458
620.000000	0.975767
616.000000	0.975190
612.000000	0.973503
608.000000	0.976232
604.000000	0.975288
600.000000	0.977689
596.000000	0.975888
592.000000	0.975699
588.000000	0.975838
584.000000	0.977635
580.000000	0.977251
576.000000	0.976095
572.000000	0.976349
568.000000	0.976772
564.000000	0.976206
560.000000	0.980498
556.000000	0.980260
552.000000	0.980680
548.000000	0.982603
544.000000	0.980983
540.000000	0.982587
536.000000	0.982830
532.000000	0.983970
528.000000	0.983065
524.000000	0.982400
520.000000	0.979788
516.000000	0.972853
512.000000	0.966828
508.000000	0.958587
504.000000	0.952820
500.000000	0.951429
496.000000	0.955795
492.000000	0.961801
488.000000	0.969340
484.000000	0.975860
480.000000	0.980809
476.000000	0.976503
472.000000	0.974849
468.000000	0.970681
464.000000	0.968332
460.000000	0.967215
456.000000	0.969880
452.000000	0.973057
448.000000	0.975706
444.000000	0.980270
440.000000	0.981690
436.000000	0.982553
432.000000	0.985023
428.000000	0.987182
424.000000	0.986249
420.000000	0.988615
416.000000	0.993507
412.000000	0.991828
408.000000	0.992633
404.000000	0.996913
400.000000	0.998798
396.000000	1.000467
392.000000	1.005011
388.000000	1.007378
384.000000	1.007118
380.000000	1.011785
376.000000	1.023365
372.000000	1.018154
368.000000	1.019917
364.000000	1.024803
360.000000	1.024503
356.000000	1.025776
352.000000	1.033787
348.000000	1.037930
344.000000	1.041464
340.000000	1.049098
336.000000	1.049398
332.000000	1.052050
328.000000	1.054916
324.000000	1.063487
320.000000	1.072889
316.000000	1.088712
312.000000	1.092155
308.000000	1.098242
304.000000	1.105267
300.000000	1.115245
