PE IR                   SPECTRUM    ASCII       PEDS        1.60        
  -1
~SP.SP
22/02/22
09:47:14.00
22/02/22
09:47:14.00
Administrator

650.000000
4









SPECTRUM 100,CPU32 MAIN 00.02.7000 27-JANUARY-2006 11:32:41
MCT
MIR
OPTKBR
76073
1.000000

4.000000
STRONG
RATIO
SPECTRUM
MAGNITUDE
MIR INT SPHERE
DOUBLE

COMBINED


0


#HDR
-1
-1
#GR
CM-1
%T
0.00002384185791015625
0.0
4000.000000
-1.000000
3351
8
22.412025
6.019426
#DATA
4000.000000	11.059859 
3999.000000	11.077965 
3998.000000	11.095955 
3997.000000	11.114290 
3996.000000	11.081285 
3995.000000	11.015854 
3994.000000	10.951522 
3993.000000	10.908519 
3992.000000	10.883771 
3991.000000	10.863779 
3990.000000	10.844695 
3989.000000	10.837160 
3988.000000	10.850416 
3987.000000	10.875465 
3986.000000	10.887849 
3985.000000	10.869123 
3984.000000	10.826097 
3983.000000	10.787540 
3982.000000	10.780774 
3981.000000	10.809826 
3980.000000	10.854108 
3979.000000	10.884882 
3978.000000	10.884019 
3977.000000	10.853300 
3976.000000	10.810916 
3975.000000	10.779163 
3974.000000	10.770030 
3973.000000	10.778689 
3972.000000	10.789989 
3971.000000	10.790449 
3970.000000	10.775428 
3969.000000	10.747870 
3968.000000	10.714021 
3967.000000	10.681578 
3966.000000	10.658179 
3965.000000	10.647376 
3964.000000	10.647334 
3963.000000	10.654280 
3962.000000	10.667268 
3961.000000	10.688114 
3960.000000	10.713866 
3959.000000	10.731939 
3958.000000	10.728184 
3957.000000	10.701274 
3956.000000	10.668978 
3955.000000	10.655819 
3954.000000	10.670784 
3953.000000	10.696876 
3952.000000	10.706283 
3951.000000	10.687231 
3950.000000	10.653421 
3949.000000	10.627636 
3948.000000	10.617271 
3947.000000	10.609081 
3946.000000	10.586901 
3945.000000	10.551696 
3944.000000	10.522763 
3943.000000	10.518765 
3942.000000	10.536555 
3941.000000	10.551251 
3940.000000	10.539674 
3939.000000	10.501050 
3938.000000	10.453505 
3937.000000	10.416113 
3936.000000	10.398417 
3935.000000	10.399863 
3934.000000	10.412656 
3933.000000	10.423290 
3932.000000	10.417878 
3931.000000	10.394178 
3930.000000	10.364849 
3929.000000	10.345929 
3928.000000	10.344089 
3927.000000	10.354899 
3926.000000	10.369668 
3925.000000	10.381403 
3924.000000	10.384400 
3923.000000	10.372491 
3922.000000	10.345979 
3921.000000	10.316845 
3920.000000	10.296358 
3919.000000	10.280155 
3918.000000	10.257533 
3917.000000	10.235301 
3916.000000	10.240081 
3915.000000	10.287859 
3914.000000	10.360676 
3913.000000	10.418297 
3912.000000	10.430055 
3911.000000	10.394386 
3910.000000	10.336145 
3909.000000	10.282428 
3908.000000	10.243016 
3907.000000	10.208506 
3906.000000	10.165929 
3905.000000	10.114564 
3904.000000	10.067390 
3903.000000	10.035601 
3902.000000	10.015275 
3901.000000	9.997777  
3900.000000	9.986985  
3899.000000	9.994407  
3898.000000	10.021144 
3897.000000	10.055536 
3896.000000	10.086879 
3895.000000	10.108792 
3894.000000	10.111037 
3893.000000	10.082880 
3892.000000	10.036190 
3891.000000	10.008707 
3890.000000	10.025978 
3889.000000	10.064448 
3888.000000	10.081781 
3887.000000	10.062695 
3886.000000	10.023219 
3885.000000	9.993316  
3884.000000	9.988254  
3883.000000	9.990231  
3882.000000	9.979335  
3881.000000	9.959541  
3880.000000	9.947257  
3879.000000	9.952341  
3878.000000	9.963943  
3877.000000	9.963181  
3876.000000	9.946623  
3875.000000	9.924316  
3874.000000	9.914286  
3873.000000	9.929431  
3872.000000	9.960820  
3871.000000	9.991992  
3870.000000	10.020830 
3869.000000	10.044547 
3868.000000	10.037733 
3867.000000	9.983097  
3866.000000	9.922107  
3865.000000	9.918979  
3864.000000	9.984482  
3863.000000	10.065989 
3862.000000	10.103021 
3861.000000	10.080797 
3860.000000	10.030809 
3859.000000	9.985921  
3858.000000	9.954173  
3857.000000	9.917120  
3856.000000	9.844329  
3855.000000	9.719912  
3854.000000	9.583688  
3853.000000	9.536879  
3852.000000	9.628783  
3851.000000	9.755619  
3850.000000	9.809008  
3849.000000	9.800634  
3848.000000	9.765025  
3847.000000	9.711289  
3846.000000	9.654732  
3845.000000	9.621833  
3844.000000	9.628738  
3843.000000	9.664673  
3842.000000	9.699385  
3841.000000	9.704260  
3840.000000	9.677486  
3839.000000	9.646819  
3838.000000	9.646472  
3837.000000	9.683877  
3836.000000	9.729975  
3835.000000	9.747601  
3834.000000	9.725312  
3833.000000	9.675764  
3832.000000	9.616483  
3831.000000	9.559065  
3830.000000	9.506387  
3829.000000	9.459646  
3828.000000	9.428603  
3827.000000	9.427937  
3826.000000	9.462804  
3825.000000	9.514404  
3824.000000	9.549093  
3823.000000	9.551544  
3822.000000	9.545806  
3821.000000	9.574680  
3820.000000	9.651177  
3819.000000	9.718986  
3818.000000	9.714792  
3817.000000	9.660417  
3816.000000	9.615154  
3815.000000	9.598149  
3814.000000	9.577863  
3813.000000	9.520697  
3812.000000	9.445327  
3811.000000	9.389084  
3810.000000	9.353902  
3809.000000	9.321273  
3808.000000	9.292387  
3807.000000	9.294703  
3806.000000	9.339070  
3805.000000	9.381072  
3804.000000	9.365891  
3803.000000	9.306463  
3802.000000	9.275360  
3801.000000	9.328739  
3800.000000	9.437060  
3799.000000	9.495617  
3798.000000	9.455839  
3797.000000	9.373396  
3796.000000	9.308953  
3795.000000	9.270523  
3794.000000	9.232383  
3793.000000	9.180803  
3792.000000	9.131571  
3791.000000	9.104723  
3790.000000	9.101618  
3789.000000	9.109541  
3788.000000	9.116071  
3787.000000	9.119273  
3786.000000	9.127958  
3785.000000	9.150866  
3784.000000	9.180846  
3783.000000	9.191998  
3782.000000	9.160737  
3781.000000	9.091168  
3780.000000	9.014594  
3779.000000	8.963828  
3778.000000	8.948049  
3777.000000	8.949281  
3776.000000	8.949709  
3775.000000	8.951587  
3774.000000	8.964378  
3773.000000	8.988800  
3772.000000	9.021115  
3771.000000	9.060837  
3770.000000	9.105626  
3769.000000	9.139230  
3768.000000	9.134028  
3767.000000	9.077073  
3766.000000	8.991316  
3765.000000	8.916887  
3764.000000	8.877624  
3763.000000	8.869401  
3762.000000	8.875209  
3761.000000	8.883188  
3760.000000	8.887115  
3759.000000	8.883680  
3758.000000	8.876906  
3757.000000	8.871459  
3756.000000	8.864758  
3755.000000	8.849709  
3754.000000	8.824807  
3753.000000	8.796394  
3752.000000	8.768404  
3751.000000	8.739472  
3750.000000	8.715472  
3749.000000	8.705384  
3748.000000	8.704055  
3747.000000	8.701889  
3746.000000	8.694691  
3745.000000	8.682773  
3744.000000	8.675562  
3743.000000	8.679670  
3742.000000	8.672024  
3741.000000	8.642088  
3740.000000	8.614460  
3739.000000	8.594952  
3738.000000	8.571347  
3737.000000	8.548958  
3736.000000	8.549961  
3735.000000	8.577971  
3734.000000	8.601879  
3733.000000	8.595547  
3732.000000	8.578528  
3731.000000	8.587817  
3730.000000	8.623133  
3729.000000	8.652283  
3728.000000	8.654092  
3727.000000	8.636355  
3726.000000	8.620803  
3725.000000	8.618385  
3724.000000	8.619143  
3723.000000	8.608060  
3722.000000	8.578540  
3721.000000	8.529608  
3720.000000	8.464605  
3719.000000	8.394970  
3718.000000	8.340249  
3717.000000	8.316499  
3716.000000	8.323906  
3715.000000	8.349173  
3714.000000	8.379292  
3713.000000	8.404355  
3712.000000	8.411840  
3711.000000	8.393428  
3710.000000	8.356397  
3709.000000	8.318899  
3708.000000	8.301069  
3707.000000	8.313020  
3706.000000	8.343468  
3705.000000	8.369077  
3704.000000	8.379207  
3703.000000	8.386545  
3702.000000	8.408192  
3701.000000	8.435654  
3700.000000	8.433423  
3699.000000	8.377314  
3698.000000	8.287681  
3697.000000	8.213782  
3696.000000	8.186587  
3695.000000	8.195794  
3694.000000	8.214659  
3693.000000	8.235862  
3692.000000	8.270288  
3691.000000	8.318131  
3690.000000	8.355119  
3689.000000	8.352178  
3688.000000	8.302034  
3687.000000	8.214442  
3686.000000	8.107188  
3685.000000	8.008964  
3684.000000	7.946080  
3683.000000	7.923398  
3682.000000	7.924665  
3681.000000	7.930928  
3680.000000	7.938336  
3679.000000	7.953889  
3678.000000	7.973546  
3677.000000	7.984029  
3676.000000	7.989610  
3675.000000	8.020422  
3674.000000	8.079756  
3673.000000	8.112439  
3672.000000	8.091476  
3671.000000	8.047412  
3670.000000	8.002654  
3669.000000	7.960889  
3668.000000	7.915771  
3667.000000	7.862221  
3666.000000	7.821513  
3665.000000	7.813717  
3664.000000	7.825129  
3663.000000	7.826158  
3662.000000	7.803243  
3661.000000	7.769214  
3660.000000	7.746707  
3659.000000	7.744151  
3658.000000	7.748800  
3657.000000	7.741543  
3656.000000	7.718071  
3655.000000	7.692927  
3654.000000	7.677775  
3653.000000	7.674660  
3652.000000	7.680734  
3651.000000	7.682164  
3650.000000	7.663704  
3649.000000	7.635079  
3648.000000	7.620699  
3647.000000	7.620251  
3646.000000	7.617212  
3645.000000	7.608400  
3644.000000	7.600365  
3643.000000	7.596821  
3642.000000	7.596970  
3641.000000	7.597566  
3640.000000	7.595022  
3639.000000	7.586626  
3638.000000	7.570651  
3637.000000	7.543532  
3636.000000	7.501309  
3635.000000	7.448455  
3634.000000	7.398365  
3633.000000	7.359294  
3632.000000	7.323590  
3631.000000	7.279188  
3630.000000	7.228012  
3629.000000	7.187117  
3628.000000	7.171192  
3627.000000	7.166819  
3626.000000	7.152888  
3625.000000	7.147133  
3624.000000	7.171423  
3623.000000	7.209925  
3622.000000	7.229929  
3621.000000	7.215528  
3620.000000	7.181942  
3619.000000	7.162338  
3618.000000	7.176543  
3617.000000	7.210754  
3616.000000	7.234995  
3615.000000	7.231365  
3614.000000	7.201088  
3613.000000	7.161744  
3612.000000	7.134629  
3611.000000	7.125901  
3610.000000	7.126205  
3609.000000	7.126568  
3608.000000	7.127954  
3607.000000	7.135609  
3606.000000	7.146054  
3605.000000	7.149221  
3604.000000	7.142228  
3603.000000	7.130874  
3602.000000	7.120479  
3601.000000	7.109712  
3600.000000	7.092615  
3599.000000	7.065890  
3598.000000	7.035490  
3597.000000	7.017529  
3596.000000	7.025364  
3595.000000	7.056461  
3594.000000	7.093622  
3593.000000	7.117512  
3592.000000	7.116739  
3591.000000	7.088439  
3590.000000	7.032107  
3589.000000	6.951204  
3588.000000	6.864191  
3587.000000	6.803664  
3586.000000	6.789944  
3585.000000	6.814943  
3584.000000	6.863687  
3583.000000	6.928281  
3582.000000	6.993980  
3581.000000	7.036783  
3580.000000	7.043271  
3579.000000	7.026398  
3578.000000	7.012598  
3577.000000	7.010978  
3576.000000	7.001601  
3575.000000	6.962571  
3574.000000	6.902637  
3573.000000	6.857465  
3572.000000	6.853891  
3571.000000	6.883972  
3570.000000	6.914748  
3569.000000	6.917796  
3568.000000	6.888870  
3567.000000	6.843795  
3566.000000	6.799079  
3565.000000	6.761993  
3564.000000	6.742081  
3563.000000	6.756018  
3562.000000	6.808010  
3561.000000	6.876175  
3560.000000	6.927286  
3559.000000	6.944236  
3558.000000	6.936985  
3557.000000	6.928207  
3556.000000	6.932282  
3555.000000	6.948019  
3554.000000	6.967747  
3553.000000	6.987166  
3552.000000	7.003208  
3551.000000	7.008351  
3550.000000	6.995841  
3549.000000	6.970377  
3548.000000	6.947680  
3547.000000	6.938371  
3546.000000	6.934991  
3545.000000	6.920569  
3544.000000	6.890207  
3543.000000	6.859003  
3542.000000	6.846556  
3541.000000	6.855620  
3540.000000	6.869231  
3539.000000	6.869916  
3538.000000	6.861486  
3537.000000	6.868200  
3536.000000	6.908958  
3535.000000	6.973032  
3534.000000	7.026188  
3533.000000	7.041008  
3532.000000	7.017636  
3531.000000	6.976597  
3530.000000	6.939571  
3529.000000	6.919252  
3528.000000	6.918846  
3527.000000	6.933490  
3526.000000	6.951847  
3525.000000	6.962877  
3524.000000	6.964779  
3523.000000	6.963943  
3522.000000	6.963910  
3521.000000	6.960939  
3520.000000	6.953115  
3519.000000	6.946932  
3518.000000	6.948837  
3517.000000	6.953298  
3516.000000	6.945951  
3515.000000	6.921764  
3514.000000	6.895100  
3513.000000	6.886744  
3512.000000	6.902960  
3511.000000	6.931989  
3510.000000	6.959442  
3509.000000	6.982122  
3508.000000	7.004691  
3507.000000	7.028744  
3506.000000	7.049756  
3505.000000	7.063636  
3504.000000	7.071812  
3503.000000	7.078664  
3502.000000	7.086215  
3501.000000	7.093160  
3500.000000	7.097184  
3499.000000	7.094551  
3498.000000	7.079918  
3497.000000	7.053078  
3496.000000	7.026334  
3495.000000	7.017837  
3494.000000	7.032491  
3493.000000	7.052100  
3492.000000	7.050470  
3491.000000	7.021076  
3490.000000	6.987328  
3489.000000	6.983279  
3488.000000	7.023339  
3487.000000	7.091115  
3486.000000	7.154972  
3485.000000	7.190204  
3484.000000	7.187037  
3483.000000	7.147583  
3482.000000	7.085180  
3481.000000	7.023275  
3480.000000	6.984443  
3479.000000	6.977206  
3478.000000	6.996665  
3477.000000	7.036263  
3476.000000	7.091440  
3475.000000	7.150929  
3474.000000	7.196275  
3473.000000	7.217924  
3472.000000	7.225613  
3471.000000	7.234781  
3470.000000	7.244760  
3469.000000	7.241463  
3468.000000	7.222590  
3467.000000	7.207442  
3466.000000	7.215187  
3465.000000	7.239760  
3464.000000	7.254716  
3463.000000	7.240607  
3462.000000	7.203125  
3461.000000	7.166237  
3460.000000	7.151144  
3459.000000	7.161690  
3458.000000	7.186223  
3457.000000	7.210160  
3456.000000	7.226213  
3455.000000	7.234425  
3454.000000	7.235386  
3453.000000	7.229472  
3452.000000	7.222716  
3451.000000	7.224017  
3450.000000	7.237421  
3449.000000	7.263355  
3448.000000	7.304367  
3447.000000	7.362005  
3446.000000	7.421938  
3445.000000	7.452403  
3444.000000	7.433100  
3443.000000	7.381386  
3442.000000	7.340231  
3441.000000	7.341265  
3440.000000	7.382877  
3439.000000	7.440734  
3438.000000	7.490220  
3437.000000	7.516739  
3436.000000	7.514610  
3435.000000	7.486170  
3434.000000	7.441818  
3433.000000	7.396144  
3432.000000	7.360539  
3431.000000	7.338420  
3430.000000	7.327592  
3429.000000	7.326894  
3428.000000	7.338343  
3427.000000	7.361592  
3426.000000	7.389829  
3425.000000	7.415798  
3424.000000	7.439820  
3423.000000	7.465789  
3422.000000	7.489718  
3421.000000	7.500540  
3420.000000	7.495509  
3419.000000	7.486611  
3418.000000	7.487674  
3417.000000	7.503119  
3416.000000	7.533272  
3415.000000	7.579277  
3414.000000	7.632244  
3413.000000	7.667566  
3412.000000	7.667265  
3411.000000	7.645842  
3410.000000	7.637064  
3409.000000	7.652709  
3408.000000	7.668937  
3407.000000	7.658647  
3406.000000	7.625297  
3405.000000	7.595174  
3404.000000	7.584742  
3403.000000	7.585796  
3402.000000	7.578791  
3401.000000	7.554942  
3400.000000	7.526860  
3399.000000	7.521483  
3398.000000	7.558305  
3397.000000	7.627305  
3396.000000	7.692555  
3395.000000	7.724394  
3394.000000	7.725920  
3393.000000	7.724245  
3392.000000	7.739023  
3391.000000	7.764695  
3390.000000	7.782457  
3389.000000	7.783849  
3388.000000	7.781098  
3387.000000	7.794641  
3386.000000	7.828916  
3385.000000	7.861780  
3384.000000	7.864253  
3383.000000	7.832988  
3382.000000	7.795370  
3381.000000	7.778827  
3380.000000	7.783226  
3379.000000	7.788967  
3378.000000	7.784947  
3377.000000	7.778551  
3376.000000	7.781971  
3375.000000	7.798738  
3374.000000	7.823352  
3373.000000	7.846139  
3372.000000	7.857562  
3371.000000	7.855372  
3370.000000	7.850701  
3369.000000	7.861897  
3368.000000	7.897985  
3367.000000	7.948783  
3366.000000	7.990964  
3365.000000	8.006659  
3364.000000	8.000903  
3363.000000	7.998580  
3362.000000	8.017915  
3361.000000	8.044924  
3360.000000	8.042894  
3359.000000	7.994341  
3358.000000	7.926250  
3357.000000	7.884959  
3356.000000	7.892121  
3355.000000	7.935587  
3354.000000	7.994886  
3353.000000	8.058453  
3352.000000	8.115727  
3351.000000	8.148641  
3350.000000	8.144389  
3349.000000	8.112034  
3348.000000	8.078263  
3347.000000	8.066420  
3346.000000	8.079077  
3345.000000	8.096836  
3344.000000	8.094389  
3343.000000	8.065192  
3342.000000	8.030541  
3341.000000	8.018856  
3340.000000	8.036018  
3339.000000	8.062300  
3338.000000	8.079734  
3337.000000	8.092918  
3336.000000	8.118119  
3335.000000	8.159029  
3334.000000	8.200458  
3333.000000	8.222350  
3332.000000	8.215676  
3331.000000	8.189147  
3330.000000	8.165193  
3329.000000	8.166924  
3328.000000	8.200854  
3327.000000	8.250007  
3326.000000	8.288703  
3325.000000	8.304653  
3324.000000	8.305313  
3323.000000	8.305598  
3322.000000	8.311951  
3321.000000	8.318209  
3320.000000	8.316346  
3319.000000	8.309449  
3318.000000	8.312457  
3317.000000	8.337925  
3316.000000	8.381052  
3315.000000	8.422354  
3314.000000	8.444607  
3313.000000	8.443577  
3312.000000	8.423923  
3311.000000	8.391407  
3310.000000	8.352085  
3309.000000	8.313604  
3308.000000	8.282126  
3307.000000	8.260838  
3306.000000	8.253203  
3305.000000	8.262188  
3304.000000	8.283191  
3303.000000	8.303680  
3302.000000	8.316260  
3301.000000	8.329268  
3300.000000	8.356589  
3299.000000	8.397495  
3298.000000	8.434698  
3297.000000	8.454190  
3296.000000	8.461967  
3295.000000	8.478059  
3294.000000	8.515595  
3293.000000	8.568346  
3292.000000	8.618241  
3291.000000	8.653050  
3290.000000	8.674931  
3289.000000	8.691008  
3288.000000	8.698618  
3287.000000	8.685142  
3286.000000	8.644253  
3285.000000	8.588489  
3284.000000	8.541645  
3283.000000	8.520071  
3282.000000	8.523409  
3281.000000	8.540658  
3280.000000	8.562445  
3279.000000	8.589377  
3278.000000	8.630223  
3277.000000	8.689545  
3276.000000	8.755345  
3275.000000	8.802411  
3274.000000	8.813940  
3273.000000	8.798148  
3272.000000	8.777370  
3271.000000	8.763963  
3270.000000	8.753884  
3269.000000	8.741859  
3268.000000	8.732672  
3267.000000	8.733632  
3266.000000	8.743857  
3265.000000	8.757485  
3264.000000	8.773197  
3263.000000	8.793386  
3262.000000	8.816693  
3261.000000	8.839335  
3260.000000	8.862594  
3259.000000	8.891036  
3258.000000	8.921631  
3257.000000	8.942276  
3256.000000	8.947463  
3255.000000	8.950449  
3254.000000	8.971478  
3253.000000	9.014205  
3252.000000	9.060098  
3251.000000	9.087487  
3250.000000	9.091273  
3249.000000	9.082745  
3248.000000	9.075737  
3247.000000	9.076022  
3246.000000	9.078818  
3245.000000	9.071511  
3244.000000	9.043798  
3243.000000	9.002979  
3242.000000	8.976839  
3241.000000	8.992267  
3240.000000	9.047373  
3239.000000	9.109109  
3238.000000	9.141393  
3237.000000	9.132767  
3236.000000	9.097264  
3235.000000	9.056504  
3234.000000	9.026799  
3233.000000	9.018284  
3232.000000	9.036200  
3231.000000	9.078455  
3230.000000	9.133738  
3229.000000	9.184594  
3228.000000	9.214217  
3227.000000	9.214916  
3226.000000	9.194925  
3225.000000	9.175927  
3224.000000	9.178595  
3223.000000	9.207324  
3222.000000	9.248607  
3221.000000	9.282964  
3220.000000	9.297141  
3219.000000	9.288445  
3218.000000	9.265068  
3217.000000	9.245325  
3216.000000	9.250634  
3215.000000	9.291184  
3214.000000	9.355807  
3213.000000	9.418305  
3212.000000	9.456805  
3211.000000	9.467045  
3210.000000	9.458543  
3209.000000	9.443475  
3208.000000	9.431332  
3207.000000	9.429755  
3206.000000	9.442909  
3205.000000	9.466812  
3204.000000	9.491231  
3203.000000	9.509309  
3202.000000	9.522680  
3201.000000	9.533832  
3200.000000	9.536613  
3199.000000	9.522440  
3198.000000	9.497004  
3197.000000	9.482918  
3196.000000	9.499281  
3195.000000	9.539890  
3194.000000	9.577968  
3193.000000	9.593636  
3192.000000	9.592629  
3191.000000	9.596590  
3190.000000	9.618131  
3189.000000	9.649152  
3188.000000	9.673227  
3187.000000	9.686247  
3186.000000	9.702497  
3185.000000	9.738673  
3184.000000	9.790612  
3183.000000	9.828360  
3182.000000	9.819887  
3181.000000	9.763273  
3180.000000	9.694188  
3179.000000	9.656943  
3178.000000	9.667005  
3177.000000	9.703767  
3176.000000	9.737258  
3175.000000	9.754610  
3174.000000	9.759256  
3173.000000	9.755252  
3172.000000	9.744613  
3171.000000	9.737306  
3170.000000	9.749791  
3169.000000	9.787052  
3168.000000	9.832633  
3167.000000	9.863427  
3166.000000	9.871752  
3165.000000	9.868087  
3164.000000	9.865431  
3163.000000	9.867947  
3162.000000	9.874788  
3161.000000	9.887703  
3160.000000	9.910009  
3159.000000	9.939242  
3158.000000	9.963191  
3157.000000	9.965399  
3156.000000	9.938711  
3155.000000	9.896757  
3154.000000	9.869866  
3153.000000	9.882432  
3152.000000	9.930769  
3151.000000	9.986185  
3150.000000	10.021748 
3149.000000	10.034731 
3148.000000	10.042706 
3147.000000	10.061447 
3146.000000	10.090146 
3145.000000	10.116557 
3144.000000	10.132467 
3143.000000	10.141737 
3142.000000	10.152830 
3141.000000	10.165549 
3140.000000	10.169963 
3139.000000	10.161615 
3138.000000	10.153984 
3137.000000	10.168354 
3136.000000	10.209325 
3135.000000	10.255274 
3134.000000	10.275983 
3133.000000	10.257483 
3132.000000	10.210425 
3131.000000	10.160214 
3130.000000	10.130992 
3129.000000	10.133537 
3128.000000	10.161308 
3127.000000	10.197048 
3126.000000	10.226524 
3125.000000	10.246332 
3124.000000	10.258748 
3123.000000	10.264135 
3122.000000	10.262008 
3121.000000	10.254775 
3120.000000	10.244341 
3119.000000	10.228302 
3118.000000	10.207543 
3117.000000	10.196982 
3116.000000	10.218813 
3115.000000	10.279099 
3114.000000	10.355289 
3113.000000	10.412833 
3112.000000	10.434034 
3111.000000	10.428910 
3110.000000	10.421237 
3109.000000	10.428294 
3108.000000	10.451472 
3107.000000	10.479150 
3106.000000	10.494871 
3105.000000	10.486420 
3104.000000	10.454516 
3103.000000	10.417526 
3102.000000	10.404449 
3101.000000	10.433804 
3100.000000	10.493619 
3099.000000	10.546936 
3098.000000	10.565745 
3097.000000	10.560306 
3096.000000	10.568305 
3095.000000	10.612033 
3094.000000	10.671124 
3093.000000	10.702820 
3092.000000	10.686749 
3091.000000	10.643469 
3090.000000	10.610168 
3089.000000	10.606122 
3088.000000	10.624835 
3087.000000	10.652783 
3086.000000	10.685128 
3085.000000	10.721010 
3084.000000	10.752547 
3083.000000	10.767330 
3082.000000	10.760295 
3081.000000	10.736776 
3080.000000	10.704912 
3079.000000	10.673088 
3078.000000	10.656511 
3077.000000	10.675800 
3076.000000	10.739227 
3075.000000	10.828099 
3074.000000	10.905540 
3073.000000	10.940644 
3072.000000	10.924703 
3071.000000	10.871828 
3070.000000	10.811622 
3069.000000	10.775793 
3068.000000	10.778631 
3067.000000	10.806598 
3066.000000	10.833916 
3065.000000	10.850834 
3064.000000	10.869465 
3063.000000	10.900344 
3062.000000	10.933204 
3061.000000	10.946927 
3060.000000	10.932188 
3059.000000	10.897458 
3058.000000	10.857503 
3057.000000	10.823935 
3056.000000	10.805701 
3055.000000	10.810823 
3054.000000	10.842380 
3053.000000	10.892201 
3052.000000	10.939593 
3051.000000	10.960725 
3050.000000	10.947085 
3049.000000	10.917325 
3048.000000	10.903058 
3047.000000	10.916336 
3046.000000	10.935518 
3045.000000	10.930375 
3044.000000	10.899360 
3043.000000	10.875569 
3042.000000	10.895273 
3041.000000	10.964286 
3040.000000	11.053900 
3039.000000	11.123530 
3038.000000	11.148276 
3037.000000	11.133270 
3036.000000	11.106655 
3035.000000	11.095145 
3034.000000	11.101042 
3033.000000	11.103291 
3032.000000	11.082559 
3031.000000	11.044139 
3030.000000	11.014659 
3029.000000	11.017057 
3028.000000	11.049486 
3027.000000	11.087554 
3026.000000	11.105998 
3025.000000	11.099774 
3024.000000	11.086104 
3023.000000	11.085831 
3022.000000	11.103869 
3021.000000	11.128580 
3020.000000	11.147473 
3019.000000	11.159662 
3018.000000	11.172521 
3017.000000	11.189664 
3016.000000	11.205683 
3015.000000	11.214084 
3014.000000	11.219288 
3013.000000	11.236250 
3012.000000	11.272848 
3011.000000	11.313916 
3010.000000	11.331284 
3009.000000	11.314428 
3008.000000	11.285091 
3007.000000	11.274387 
3006.000000	11.289199 
3005.000000	11.308745 
3004.000000	11.311354 
3003.000000	11.295150 
3002.000000	11.272944 
3001.000000	11.257670 
3000.000000	11.256745 
2999.000000	11.270984 
2998.000000	11.291621 
2997.000000	11.304456 
2996.000000	11.303913 
2995.000000	11.298921 
2994.000000	11.298777 
2993.000000	11.298111 
2992.000000	11.284630 
2991.000000	11.259388 
2990.000000	11.239626 
2989.000000	11.240236 
2988.000000	11.259770 
2987.000000	11.286551 
2986.000000	11.311594 
2985.000000	11.331469 
2984.000000	11.344629 
2983.000000	11.351866 
2982.000000	11.358463 
2981.000000	11.370514 
2980.000000	11.388554 
2979.000000	11.407485 
2978.000000	11.422519 
2977.000000	11.432208 
2976.000000	11.435634 
2975.000000	11.430304 
2974.000000	11.414814 
2973.000000	11.391527 
2972.000000	11.364243 
2971.000000	11.334773 
2970.000000	11.305142 
2969.000000	11.282586 
2968.000000	11.277129 
2967.000000	11.290410 
2966.000000	11.309410 
2965.000000	11.316264 
2964.000000	11.305017 
2963.000000	11.285861 
2962.000000	11.273023 
2961.000000	11.272291 
2960.000000	11.280279 
2959.000000	11.289113 
2958.000000	11.288073 
2957.000000	11.267386 
2956.000000	11.229781 
2955.000000	11.197729 
2954.000000	11.199856 
2953.000000	11.244178 
2952.000000	11.306590 
2951.000000	11.349570 
2950.000000	11.352913 
2949.000000	11.325880 
2948.000000	11.292872 
2947.000000	11.272117 
2946.000000	11.267483 
2945.000000	11.274364 
2944.000000	11.286849 
2943.000000	11.298663 
2942.000000	11.303149 
2941.000000	11.298081 
2940.000000	11.290627 
2939.000000	11.292493 
2938.000000	11.306139 
2937.000000	11.317982 
2936.000000	11.310106 
2935.000000	11.279519 
2934.000000	11.242066 
2933.000000	11.215512 
2932.000000	11.201599 
2931.000000	11.187762 
2930.000000	11.165104 
2929.000000	11.141542 
2928.000000	11.136580 
2927.000000	11.163524 
2926.000000	11.216505 
2925.000000	11.273932 
2924.000000	11.314469 
2923.000000	11.330516 
2922.000000	11.327942 
2921.000000	11.316117 
2920.000000	11.301144 
2919.000000	11.287748 
2918.000000	11.283281 
2917.000000	11.295155 
2916.000000	11.322912 
2915.000000	11.355539 
2914.000000	11.379298 
2913.000000	11.389375 
2912.000000	11.393892 
2911.000000	11.406041 
2910.000000	11.433011 
2909.000000	11.471474 
2908.000000	11.510446 
2907.000000	11.537093 
2906.000000	11.543119 
2905.000000	11.531592 
2904.000000	11.518705 
2903.000000	11.522759 
2902.000000	11.546635 
2901.000000	11.573636 
2900.000000	11.583722 
2899.000000	11.572215 
2898.000000	11.550441 
2897.000000	11.532431 
2896.000000	11.526613 
2895.000000	11.537074 
2894.000000	11.563745 
2893.000000	11.598674 
2892.000000	11.628019 
2891.000000	11.642140 
2890.000000	11.642558 
2889.000000	11.638278 
2888.000000	11.637310 
2887.000000	11.640908 
2886.000000	11.642411 
2885.000000	11.631802 
2884.000000	11.606531 
2883.000000	11.579645 
2882.000000	11.571545 
2881.000000	11.589437 
2880.000000	11.618078 
2879.000000	11.633927 
2878.000000	11.625683 
2877.000000	11.599153 
2876.000000	11.568673 
2875.000000	11.549974 
2874.000000	11.554982 
2873.000000	11.582596 
2872.000000	11.614451 
2871.000000	11.628668 
2870.000000	11.620549 
2869.000000	11.603814 
2868.000000	11.591430 
2867.000000	11.584453 
2866.000000	11.582308 
2865.000000	11.593178 
2864.000000	11.624035 
2863.000000	11.664518 
2862.000000	11.690930 
2861.000000	11.687443 
2860.000000	11.658273 
2859.000000	11.619473 
2858.000000	11.584833 
2857.000000	11.560724 
2856.000000	11.547712 
2855.000000	11.540820 
2854.000000	11.530070 
2853.000000	11.507337 
2852.000000	11.475990 
2851.000000	11.451967 
2850.000000	11.452011 
2849.000000	11.480119 
2848.000000	11.525741 
2847.000000	11.573709 
2846.000000	11.613284 
2845.000000	11.638733 
2844.000000	11.647992 
2843.000000	11.645861 
2842.000000	11.645116 
2841.000000	11.656817 
2840.000000	11.678468 
2839.000000	11.697413 
2838.000000	11.707924 
2837.000000	11.718984 
2836.000000	11.740354 
2835.000000	11.765715 
2834.000000	11.776591 
2833.000000	11.762668 
2832.000000	11.734105 
2831.000000	11.714033 
2830.000000	11.722133 
2829.000000	11.763221 
2828.000000	11.825791 
2827.000000	11.889429 
2826.000000	11.936048 
2825.000000	11.956037 
2824.000000	11.945633 
2823.000000	11.905566 
2822.000000	11.848034 
2821.000000	11.799090 
2820.000000	11.781546 
2819.000000	11.792512 
2818.000000	11.807423 
2817.000000	11.810063 
2816.000000	11.809455 
2815.000000	11.821454 
2814.000000	11.844083 
2813.000000	11.862833 
2812.000000	11.873440 
2811.000000	11.883911 
2810.000000	11.894368 
2809.000000	11.890887 
2808.000000	11.866590 
2807.000000	11.836978 
2806.000000	11.823320 
2805.000000	11.826713 
2804.000000	11.829562 
2803.000000	11.820919 
2802.000000	11.809524 
2801.000000	11.809631 
2800.000000	11.821450 
2799.000000	11.829891 
2798.000000	11.818767 
2797.000000	11.783611 
2796.000000	11.736160 
2795.000000	11.700130 
2794.000000	11.698124 
2793.000000	11.734871 
2792.000000	11.790575 
2791.000000	11.834882 
2790.000000	11.850381 
2789.000000	11.842583 
2788.000000	11.828484 
2787.000000	11.819113 
2786.000000	11.814942 
2785.000000	11.813398 
2784.000000	11.813834 
2783.000000	11.814437 
2782.000000	11.809551 
2781.000000	11.795054 
2780.000000	11.776565 
2779.000000	11.769020 
2778.000000	11.785144 
2777.000000	11.823020 
2776.000000	11.864951 
2775.000000	11.889945 
2774.000000	11.889328 
2773.000000	11.871217 
2772.000000	11.850159 
2771.000000	11.832921 
2770.000000	11.815123 
2769.000000	11.790372 
2768.000000	11.759564 
2767.000000	11.730587 
2766.000000	11.711692 
2765.000000	11.706964 
2764.000000	11.716034 
2763.000000	11.735171 
2762.000000	11.758618 
2761.000000	11.780700 
2760.000000	11.797987 
2759.000000	11.810922 
2758.000000	11.824639 
2757.000000	11.846054 
2756.000000	11.875549 
2755.000000	11.900247 
2754.000000	11.900545 
2753.000000	11.868014 
2752.000000	11.814390 
2751.000000	11.759516 
2750.000000	11.714393 
2749.000000	11.681465 
2748.000000	11.665697 
2747.000000	11.672981 
2746.000000	11.696570 
2745.000000	11.716800 
2744.000000	11.720868 
2743.000000	11.716570 
2742.000000	11.720798 
2741.000000	11.739152 
2740.000000	11.761389 
2739.000000	11.771730 
2738.000000	11.758660 
2737.000000	11.721207 
2736.000000	11.673832 
2735.000000	11.639909 
2734.000000	11.629868 
2733.000000	11.627337 
2732.000000	11.607163 
2731.000000	11.568184 
2730.000000	11.538211 
2729.000000	11.543950 
2728.000000	11.583662 
2727.000000	11.632157 
2726.000000	11.664695 
2725.000000	11.672270 
2724.000000	11.662885 
2723.000000	11.655059 
2722.000000	11.663885 
2721.000000	11.685084 
2720.000000	11.695535 
2719.000000	11.676140 
2718.000000	11.631972 
2717.000000	11.584999 
2716.000000	11.551976 
2715.000000	11.536875 
2714.000000	11.540361 
2713.000000	11.564333 
2712.000000	11.604600 
2711.000000	11.647413 
2710.000000	11.677223 
2709.000000	11.684138 
2708.000000	11.664349 
2707.000000	11.621630 
2706.000000	11.571598 
2705.000000	11.536495 
2704.000000	11.528450 
2703.000000	11.540777 
2702.000000	11.559184 
2701.000000	11.575928 
2700.000000	11.587255 
2699.000000	11.583596 
2698.000000	11.554579 
2697.000000	11.506069 
2696.000000	11.464002 
2695.000000	11.454861 
2694.000000	11.483374 
2693.000000	11.530777 
2692.000000	11.572251 
2691.000000	11.593672 
2690.000000	11.594777 
2689.000000	11.582735 
2688.000000	11.565988 
2687.000000	11.551772 
2686.000000	11.543972 
2685.000000	11.539929 
2684.000000	11.531017 
2683.000000	11.511121 
2682.000000	11.485812 
2681.000000	11.468972 
2680.000000	11.467021 
2679.000000	11.469700 
2678.000000	11.461654 
2677.000000	11.441468 
2676.000000	11.422897 
2675.000000	11.416469 
2674.000000	11.417233 
2673.000000	11.414944 
2672.000000	11.410250 
2671.000000	11.413201 
2670.000000	11.428043 
2669.000000	11.447738 
2668.000000	11.464858 
2667.000000	11.480541 
2666.000000	11.498684 
2665.000000	11.516434 
2664.000000	11.525523 
2663.000000	11.520161 
2662.000000	11.499259 
2661.000000	11.463922 
2660.000000	11.419155 
2659.000000	11.377336 
2658.000000	11.352752 
2657.000000	11.349407 
2656.000000	11.357392 
2655.000000	11.362870 
2654.000000	11.358656 
2653.000000	11.344648 
2652.000000	11.323892 
2651.000000	11.302187 
2650.000000	11.287275 
2649.000000	11.282513 
2648.000000	11.282168 
2647.000000	11.277106 
2646.000000	11.265025 
2645.000000	11.252799 
2644.000000	11.250082 
2643.000000	11.262157 
2642.000000	11.285196 
2641.000000	11.304731 
2640.000000	11.302854 
2639.000000	11.273666 
2638.000000	11.230825 
2637.000000	11.194611 
2636.000000	11.172804 
2635.000000	11.160109 
2634.000000	11.154084 
2633.000000	11.161788 
2632.000000	11.187791 
2631.000000	11.223386 
2630.000000	11.252484 
2629.000000	11.263382 
2628.000000	11.251957 
2627.000000	11.220509 
2626.000000	11.179971 
2625.000000	11.147883 
2624.000000	11.135460 
2623.000000	11.137585 
2622.000000	11.141627 
2621.000000	11.144850 
2620.000000	11.156624 
2619.000000	11.183526 
2618.000000	11.218208 
2617.000000	11.244683 
2616.000000	11.250881 
2615.000000	11.235436 
2614.000000	11.206597 
2613.000000	11.175987 
2612.000000	11.149761 
2611.000000	11.124319 
2610.000000	11.093922 
2609.000000	11.063501 
2608.000000	11.049146 
2607.000000	11.062117 
2606.000000	11.094162 
2605.000000	11.121206 
2604.000000	11.121049 
2603.000000	11.087914 
2602.000000	11.034247 
2601.000000	10.981859 
2600.000000	10.949096 
2599.000000	10.942024 
2598.000000	10.955682 
2597.000000	10.981875 
2596.000000	11.011947 
2595.000000	11.032092 
2594.000000	11.024847 
2593.000000	10.985206 
2592.000000	10.933797 
2591.000000	10.903089 
2590.000000	10.905592 
2589.000000	10.922163 
2588.000000	10.927006 
2587.000000	10.918398 
2586.000000	10.916608 
2585.000000	10.935196 
2584.000000	10.965470 
2583.000000	10.990118 
2582.000000	11.000459 
2581.000000	10.994672 
2580.000000	10.970144 
2579.000000	10.929951 
2578.000000	10.892640 
2577.000000	10.881883 
2576.000000	10.902568 
2575.000000	10.934056 
2574.000000	10.949342 
2573.000000	10.935574 
2572.000000	10.896557 
2571.000000	10.845459 
2570.000000	10.800143 
2569.000000	10.777230 
2568.000000	10.781142 
2567.000000	10.799660 
2566.000000	10.814479 
2565.000000	10.814905 
2564.000000	10.800227 
2563.000000	10.775170 
2562.000000	10.749038 
2561.000000	10.734564 
2560.000000	10.739110 
2559.000000	10.757433 
2558.000000	10.778028 
2557.000000	10.793612 
2556.000000	10.799225 
2555.000000	10.785062 
2554.000000	10.744110 
2553.000000	10.689103 
2552.000000	10.650441 
2551.000000	10.649212 
2550.000000	10.675925 
2549.000000	10.700062 
2548.000000	10.697521 
2547.000000	10.667541 
2546.000000	10.629966 
2545.000000	10.610714 
2544.000000	10.623605 
2543.000000	10.658490 
2542.000000	10.688334 
2541.000000	10.693053 
2540.000000	10.676007 
2539.000000	10.654008 
2538.000000	10.634766 
2537.000000	10.611741 
2536.000000	10.580856 
2535.000000	10.552959 
2534.000000	10.543515 
2533.000000	10.553960 
2532.000000	10.570025 
2531.000000	10.578623 
2530.000000	10.580613 
2529.000000	10.583648 
2528.000000	10.586543 
2527.000000	10.577852 
2526.000000	10.552034 
2525.000000	10.521588 
2524.000000	10.506611 
2523.000000	10.512698 
2522.000000	10.524989 
2521.000000	10.525938 
2520.000000	10.514179 
2519.000000	10.502342 
2518.000000	10.499737 
2517.000000	10.502522 
2516.000000	10.500203 
2515.000000	10.486897 
2514.000000	10.465132 
2513.000000	10.442567 
2512.000000	10.427505 
2511.000000	10.425103 
2510.000000	10.434373 
2509.000000	10.448584 
2508.000000	10.459992 
2507.000000	10.464204 
2506.000000	10.459820 
2505.000000	10.445999 
2504.000000	10.423631 
2503.000000	10.399283 
2502.000000	10.384267 
2501.000000	10.385279 
2500.000000	10.395891 
2499.000000	10.401208 
2498.000000	10.392306 
2497.000000	10.372934 
2496.000000	10.350784 
2495.000000	10.327153 
2494.000000	10.300109 
2493.000000	10.273561 
2492.000000	10.254321 
2491.000000	10.240045 
2490.000000	10.220239 
2489.000000	10.195148 
2488.000000	10.185812 
2487.000000	10.214045 
2486.000000	10.272699 
2485.000000	10.325438 
2484.000000	10.339472 
2483.000000	10.313177 
2482.000000	10.270080 
2481.000000	10.233562 
2480.000000	10.212767 
2479.000000	10.205983 
2478.000000	10.207263 
2477.000000	10.209982 
2476.000000	10.211282 
2475.000000	10.213562 
2474.000000	10.215743 
2473.000000	10.204790 
2472.000000	10.166365 
2471.000000	10.107406 
2470.000000	10.058386 
2469.000000	10.044413 
2468.000000	10.058869 
2467.000000	10.074223 
2466.000000	10.075556 
2465.000000	10.072579 
2464.000000	10.078666 
2463.000000	10.090270 
2462.000000	10.093169 
2461.000000	10.081611 
2460.000000	10.063763 
2459.000000	10.051482 
2458.000000	10.050587 
2457.000000	10.058964 
2456.000000	10.067813 
2455.000000	10.064582 
2454.000000	10.040383 
2453.000000	9.998090  
2452.000000	9.952014  
2451.000000	9.917599  
2450.000000	9.900437  
2449.000000	9.893915  
2448.000000	9.887102  
2447.000000	9.876719  
2446.000000	9.872285  
2445.000000	9.887419  
2444.000000	9.924785  
2443.000000	9.971001  
2442.000000	10.006478 
2441.000000	10.017996 
2440.000000	10.002852 
2439.000000	9.967378  
2438.000000	9.925525  
2437.000000	9.894295  
2436.000000	9.883184  
2435.000000	9.887342  
2434.000000	9.893703  
2433.000000	9.892714  
2432.000000	9.882596  
2431.000000	9.866892  
2430.000000	9.853363  
2429.000000	9.852188  
2428.000000	9.867522  
2427.000000	9.889857  
2426.000000	9.902348  
2425.000000	9.896794  
2424.000000	9.880320  
2423.000000	9.865574  
2422.000000	9.857928  
2421.000000	9.853085  
2420.000000	9.843277  
2419.000000	9.824477  
2418.000000	9.801049  
2417.000000	9.784630  
2416.000000	9.784809  
2415.000000	9.799394  
2414.000000	9.817017  
2413.000000	9.829775  
2412.000000	9.838340  
2411.000000	9.843171  
2410.000000	9.837668  
2409.000000	9.816858  
2408.000000	9.790294  
2407.000000	9.778282  
2406.000000	9.791996  
2405.000000	9.819460  
2404.000000	9.832837  
2403.000000	9.810089  
2402.000000	9.751802  
2401.000000	9.680547  
2400.000000	9.624901  
2399.000000	9.602046  
2398.000000	9.612031  
2397.000000	9.644093  
2396.000000	9.684511  
2395.000000	9.719141  
2394.000000	9.735282  
2393.000000	9.728360  
2392.000000	9.707426  
2391.000000	9.689247  
2390.000000	9.683962  
2389.000000	9.687721  
2388.000000	9.690714  
2387.000000	9.690383  
2386.000000	9.693798  
2385.000000	9.707311  
2384.000000	9.727344  
2383.000000	9.743941  
2382.000000	9.751940  
2381.000000	9.755185  
2380.000000	9.758957  
2379.000000	9.761449  
2378.000000	9.756116  
2377.000000	9.742183  
2376.000000	9.729336  
2375.000000	9.728574  
2374.000000	9.739111  
2373.000000	9.746617  
2372.000000	9.737471  
2371.000000	9.716244  
2370.000000	9.708596  
2369.000000	9.739641  
2368.000000	9.800024  
2367.000000	9.841359  
2366.000000	9.824781  
2365.000000	9.768585  
2364.000000	9.727196  
2363.000000	9.725755  
2362.000000	9.735289  
2361.000000	9.714309  
2360.000000	9.659736  
2359.000000	9.619608  
2358.000000	9.648257  
2357.000000	9.742476  
2356.000000	9.835203  
2355.000000	9.847750  
2354.000000	9.766158  
2353.000000	9.656581  
2352.000000	9.591329  
2351.000000	9.581170  
2350.000000	9.586024  
2349.000000	9.584747  
2348.000000	9.597098  
2347.000000	9.651429  
2346.000000	9.753303  
2345.000000	9.850262  
2344.000000	9.853726  
2343.000000	9.715411  
2342.000000	9.501396  
2341.000000	9.358499  
2340.000000	9.381546  
2339.000000	9.534254  
2338.000000	9.684698  
2337.000000	9.733136  
2336.000000	9.681040  
2335.000000	9.588185  
2334.000000	9.485059  
2333.000000	9.363016  
2332.000000	9.226417  
2331.000000	9.132195  
2330.000000	9.145501  
2329.000000	9.275413  
2328.000000	9.454388  
2327.000000	9.589560  
2326.000000	9.636700  
2325.000000	9.610161  
2324.000000	9.556764  
2323.000000	9.503038  
2322.000000	9.451998  
2321.000000	9.410605  
2320.000000	9.392336  
2319.000000	9.399140  
2318.000000	9.407492  
2317.000000	9.401054  
2316.000000	9.385803  
2315.000000	9.379783  
2314.000000	9.382408  
2313.000000	9.373589  
2312.000000	9.336710  
2311.000000	9.281900  
2310.000000	9.240870  
2309.000000	9.241238  
2308.000000	9.285042  
2307.000000	9.347097  
2306.000000	9.395065  
2305.000000	9.411186  
2304.000000	9.399023  
2303.000000	9.373045  
2302.000000	9.347084  
2301.000000	9.331831  
2300.000000	9.331875  
2299.000000	9.341044  
2298.000000	9.344655  
2297.000000	9.333589  
2296.000000	9.314828  
2295.000000	9.303315  
2294.000000	9.306806  
2293.000000	9.319376  
2292.000000	9.329118  
2291.000000	9.324621  
2290.000000	9.300405  
2289.000000	9.261046  
2288.000000	9.221935  
2287.000000	9.198046  
2286.000000	9.191799  
2285.000000	9.194046  
2284.000000	9.195851  
2283.000000	9.194170  
2282.000000	9.187924  
2281.000000	9.176593  
2280.000000	9.164367  
2279.000000	9.159338  
2278.000000	9.163842  
2277.000000	9.170830  
2276.000000	9.173096  
2275.000000	9.172815  
2274.000000	9.176600  
2273.000000	9.184549  
2272.000000	9.189268  
2271.000000	9.185156  
2270.000000	9.175132  
2269.000000	9.167766  
2268.000000	9.169846  
2267.000000	9.180379  
2266.000000	9.189445  
2265.000000	9.184007  
2264.000000	9.158347  
2263.000000	9.120465  
2262.000000	9.087668  
2261.000000	9.074262  
2260.000000	9.082385  
2259.000000	9.102151  
2258.000000	9.120107  
2257.000000	9.129005  
2256.000000	9.130850  
2255.000000	9.131308  
2254.000000	9.131721  
2253.000000	9.129016  
2252.000000	9.122003  
2251.000000	9.114222  
2250.000000	9.109373  
2249.000000	9.107749  
2248.000000	9.108930  
2247.000000	9.113869  
2246.000000	9.121172  
2245.000000	9.124911  
2244.000000	9.121678  
2243.000000	9.118056  
2242.000000	9.124697  
2241.000000	9.140993  
2240.000000	9.150599  
2239.000000	9.136515  
2238.000000	9.099770  
2237.000000	9.060865  
2236.000000	9.042545  
2235.000000	9.051963  
2234.000000	9.079020  
2233.000000	9.108994  
2232.000000	9.133553  
2231.000000	9.149982  
2230.000000	9.154632  
2229.000000	9.143506  
2228.000000	9.120812  
2227.000000	9.101217  
2226.000000	9.097414  
2225.000000	9.106169  
2224.000000	9.111645  
2223.000000	9.103717  
2222.000000	9.088698  
2221.000000	9.080058  
2220.000000	9.082897  
2219.000000	9.090981  
2218.000000	9.095483  
2217.000000	9.091202  
2216.000000	9.075754  
2215.000000	9.049128  
2214.000000	9.016366  
2213.000000	8.986887  
2212.000000	8.967594  
2211.000000	8.957151  
2210.000000	8.948634  
2209.000000	8.937890  
2208.000000	8.929386  
2207.000000	8.934456  
2206.000000	8.961929  
2205.000000	9.007053  
2204.000000	9.049975  
2203.000000	9.069352  
2202.000000	9.059707  
2201.000000	9.034676  
2200.000000	9.013193  
2199.000000	9.004847  
2198.000000	9.008875  
2197.000000	9.021182  
2196.000000	9.036643  
2195.000000	9.048441  
2194.000000	9.053062  
2193.000000	9.056465  
2192.000000	9.068889  
2191.000000	9.090303  
2190.000000	9.105006  
2189.000000	9.095398  
2188.000000	9.061037  
2187.000000	9.021723  
2186.000000	9.001491  
2185.000000	9.009619  
2184.000000	9.035416  
2183.000000	9.059886  
2182.000000	9.072126  
2181.000000	9.074678  
2180.000000	9.074830  
2179.000000	9.074824  
2178.000000	9.072444  
2177.000000	9.066731  
2176.000000	9.057682  
2175.000000	9.042820  
2174.000000	9.021452  
2173.000000	9.002785  
2172.000000	9.001442  
2171.000000	9.020210  
2170.000000	9.043187  
2169.000000	9.052410  
2168.000000	9.048291  
2167.000000	9.046856  
2166.000000	9.058062  
2165.000000	9.074289  
2164.000000	9.081843  
2163.000000	9.077297  
2162.000000	9.068183  
2161.000000	9.060923  
2160.000000	9.053386  
2159.000000	9.040045  
2158.000000	9.021313  
2157.000000	9.005201  
2156.000000	8.999589  
2155.000000	9.004066  
2154.000000	9.010666  
2153.000000	9.012389  
2152.000000	9.009448  
2151.000000	9.006705  
2150.000000	9.007424  
2149.000000	9.012335  
2148.000000	9.024303  
2147.000000	9.049587  
2146.000000	9.089933  
2145.000000	9.132601  
2144.000000	9.152856  
2143.000000	9.133577  
2142.000000	9.085667  
2141.000000	9.044562  
2140.000000	9.039337  
2139.000000	9.064800  
2138.000000	9.089587  
2137.000000	9.092433  
2136.000000	9.084221  
2135.000000	9.091117  
2134.000000	9.121993  
2133.000000	9.159073  
2132.000000	9.177417  
2131.000000	9.166464  
2130.000000	9.133742  
2129.000000	9.095649  
2128.000000	9.067458  
2127.000000	9.057208  
2126.000000	9.064313  
2125.000000	9.082599  
2124.000000	9.103727  
2123.000000	9.117945  
2122.000000	9.116426  
2121.000000	9.098548  
2120.000000	9.075447  
2119.000000	9.060810  
2118.000000	9.058298  
2117.000000	9.062566  
2116.000000	9.070800  
2115.000000	9.085439  
2114.000000	9.104489  
2113.000000	9.117987  
2112.000000	9.118940  
2111.000000	9.111065  
2110.000000	9.099795  
2109.000000	9.082413  
2108.000000	9.056681  
2107.000000	9.035389  
2106.000000	9.039487  
2105.000000	9.073138  
2104.000000	9.113527  
2103.000000	9.130726  
2102.000000	9.114951  
2101.000000	9.083087  
2100.000000	9.062898  
2099.000000	9.072928  
2098.000000	9.112147  
2097.000000	9.161982  
2096.000000	9.198646  
2095.000000	9.208271  
2094.000000	9.193581  
2093.000000	9.167696  
2092.000000	9.143338  
2091.000000	9.127885  
2090.000000	9.124305  
2089.000000	9.131390  
2088.000000	9.143057  
2087.000000	9.152220  
2086.000000	9.157661  
2085.000000	9.165165  
2084.000000	9.180146  
2083.000000	9.199946  
2082.000000	9.214663  
2081.000000	9.215699  
2080.000000	9.203769  
2079.000000	9.188892  
2078.000000	9.182225  
2077.000000	9.186725  
2076.000000	9.195099  
2075.000000	9.196434  
2074.000000	9.185025  
2073.000000	9.164277  
2072.000000	9.143601  
2071.000000	9.131848  
2070.000000	9.131790  
2069.000000	9.139424  
2068.000000	9.148623  
2067.000000	9.157222  
2066.000000	9.168291  
2065.000000	9.185669  
2064.000000	9.210621  
2063.000000	9.243291  
2062.000000	9.282936  
2061.000000	9.323055  
2060.000000	9.349775  
2059.000000	9.351427  
2058.000000	9.330666  
2057.000000	9.303283  
2056.000000	9.283782  
2055.000000	9.275032  
2054.000000	9.272458  
2053.000000	9.272563  
2052.000000	9.273495  
2051.000000	9.271881  
2050.000000	9.264930  
2049.000000	9.254830  
2048.000000	9.246925  
2047.000000	9.243761  
2046.000000	9.243769  
2045.000000	9.245324  
2044.000000	9.248866  
2043.000000	9.255583  
2042.000000	9.267564  
2041.000000	9.288184  
2040.000000	9.316910  
2039.000000	9.343370  
2038.000000	9.353391  
2037.000000	9.344869  
2036.000000	9.333112  
2035.000000	9.335005  
2034.000000	9.350580  
2033.000000	9.365919  
2032.000000	9.372114  
2031.000000	9.373617  
2030.000000	9.376737  
2029.000000	9.377566  
2028.000000	9.367347  
2027.000000	9.347395  
2026.000000	9.332100  
2025.000000	9.335981  
2024.000000	9.359369  
2023.000000	9.388279  
2022.000000	9.406556  
2021.000000	9.408113  
2020.000000	9.399370  
2019.000000	9.390776  
2018.000000	9.386206  
2017.000000	9.381613  
2016.000000	9.373642  
2015.000000	9.365693  
2014.000000	9.362668  
2013.000000	9.362984  
2012.000000	9.360816  
2011.000000	9.356405  
2010.000000	9.359248  
2009.000000	9.378201  
2008.000000	9.411170  
2007.000000	9.446457  
2006.000000	9.469834  
2005.000000	9.468738  
2004.000000	9.436969  
2003.000000	9.384869  
2002.000000	9.341640  
2001.000000	9.337346  
2000.000000	9.378729  
1999.000000	9.444521  
1998.000000	9.505393  
1997.000000	9.542073  
1996.000000	9.548153  
1995.000000	9.529020  
1994.000000	9.503511  
1993.000000	9.495967  
1992.000000	9.515160  
1991.000000	9.543973  
1990.000000	9.558933  
1989.000000	9.554630  
1988.000000	9.541052  
1987.000000	9.526322  
1986.000000	9.512588  
1985.000000	9.502983  
1984.000000	9.500156  
1983.000000	9.498748  
1982.000000	9.490974  
1981.000000	9.482013  
1980.000000	9.489893  
1979.000000	9.524409  
1978.000000	9.574322  
1977.000000	9.617331  
1976.000000	9.637164  
1975.000000	9.629440  
1974.000000	9.600430  
1973.000000	9.565249  
1972.000000	9.540419  
1971.000000	9.531708  
1970.000000	9.532344  
1969.000000	9.535489  
1968.000000	9.542158  
1967.000000	9.552787  
1966.000000	9.558728  
1965.000000	9.551917  
1964.000000	9.538569  
1963.000000	9.534098  
1962.000000	9.546961  
1961.000000	9.573251  
1960.000000	9.603415  
1959.000000	9.626899  
1958.000000	9.632702  
1957.000000	9.616062  
1956.000000	9.587619  
1955.000000	9.568381  
1954.000000	9.571360  
1953.000000	9.591615  
1952.000000	9.615014  
1951.000000	9.631142  
1950.000000	9.634182  
1949.000000	9.621031  
1948.000000	9.594962  
1947.000000	9.567829  
1946.000000	9.553963  
1945.000000	9.560605  
1944.000000	9.584702  
1943.000000	9.616659  
1942.000000	9.645655  
1941.000000	9.665139  
1940.000000	9.675699  
1939.000000	9.682641  
1938.000000	9.690490  
1937.000000	9.700050  
1936.000000	9.709800  
1935.000000	9.718273  
1934.000000	9.724191  
1933.000000	9.725595  
1932.000000	9.720962  
1931.000000	9.712370  
1930.000000	9.705650  
1929.000000	9.708970  
1928.000000	9.726252  
1927.000000	9.750240  
1926.000000	9.768257  
1925.000000	9.774019  
1924.000000	9.774642  
1923.000000	9.777923  
1922.000000	9.778274  
1921.000000	9.763513  
1920.000000	9.734006  
1919.000000	9.706911  
1918.000000	9.701686  
1917.000000	9.721411  
1916.000000	9.750538  
1915.000000	9.772775  
1914.000000	9.784830  
1913.000000	9.791620  
1912.000000	9.796364  
1911.000000	9.796364  
1910.000000	9.787211  
1909.000000	9.772421  
1908.000000	9.763650  
1907.000000	9.768604  
1906.000000	9.784118  
1905.000000	9.800173  
1904.000000	9.811423  
1903.000000	9.817564  
1902.000000	9.819240  
1901.000000	9.820186  
1900.000000	9.827781  
1899.000000	9.845641  
1898.000000	9.867614  
1897.000000	9.880962  
1896.000000	9.878696  
1895.000000	9.864019  
1894.000000	9.844524  
1893.000000	9.827143  
1892.000000	9.817381  
1891.000000	9.817932  
1890.000000	9.826757  
1889.000000	9.838625  
1888.000000	9.848179  
1887.000000	9.851226  
1886.000000	9.846048  
1885.000000	9.835495  
1884.000000	9.826878  
1883.000000	9.826695  
1882.000000	9.836289  
1881.000000	9.855463  
1880.000000	9.882975  
1879.000000	9.910006  
1878.000000	9.921188  
1877.000000	9.909120  
1876.000000	9.887569  
1875.000000	9.880869  
1874.000000	9.897384  
1873.000000	9.922844  
1872.000000	9.940331  
1871.000000	9.945442  
1870.000000	9.940584  
1869.000000	9.928429  
1868.000000	9.916986  
1867.000000	9.917522  
1866.000000	9.931982  
1865.000000	9.951127  
1864.000000	9.964444  
1863.000000	9.967546  
1862.000000	9.959925  
1861.000000	9.940265  
1860.000000	9.909047  
1859.000000	9.874932  
1858.000000	9.853790  
1857.000000	9.857537  
1856.000000	9.883275  
1855.000000	9.914823  
1854.000000	9.936275  
1853.000000	9.945406  
1852.000000	9.952785  
1851.000000	9.965159  
1850.000000	9.978822  
1849.000000	9.983896  
1848.000000	9.978934  
1847.000000	9.975741  
1846.000000	9.985124  
1845.000000	9.999920  
1844.000000	9.999660  
1843.000000	9.975850  
1842.000000	9.941950  
1841.000000	9.920946  
1840.000000	9.926865  
1839.000000	9.954409  
1838.000000	9.984328  
1837.000000	9.998085  
1836.000000	9.993900  
1835.000000	9.984210  
1834.000000	9.982628  
1833.000000	9.995992  
1832.000000	10.022518 
1831.000000	10.051050 
1830.000000	10.065959 
1829.000000	10.058217 
1828.000000	10.035962 
1827.000000	10.016866 
1826.000000	10.010827 
1825.000000	10.012037 
1824.000000	10.011590 
1823.000000	10.011804 
1822.000000	10.021529 
1821.000000	10.044740 
1820.000000	10.075824 
1819.000000	10.102392 
1818.000000	10.108937 
1817.000000	10.085560 
1816.000000	10.044143 
1815.000000	10.012231 
1814.000000	10.005871 
1813.000000	10.015883 
1812.000000	10.021640 
1811.000000	10.016311 
1810.000000	10.007200 
1809.000000	10.001472 
1808.000000	10.003327 
1807.000000	10.017129 
1806.000000	10.042645 
1805.000000	10.067815 
1804.000000	10.076148 
1803.000000	10.064482 
1802.000000	10.049113 
1801.000000	10.051277 
1800.000000	10.072018 
1799.000000	10.092817 
1798.000000	10.094555 
1797.000000	10.074928 
1796.000000	10.047364 
1795.000000	10.028410 
1794.000000	10.025629 
1793.000000	10.032536 
1792.000000	10.034357 
1791.000000	10.024545 
1790.000000	10.007277 
1789.000000	9.990755  
1788.000000	9.978893  
1787.000000	9.968538  
1786.000000	9.956315  
1785.000000	9.947874  
1784.000000	9.955305  
1783.000000	9.982471  
1782.000000	10.020519 
1781.000000	10.054945 
1780.000000	10.069370 
1779.000000	10.062900 
1778.000000	10.047496 
1777.000000	10.035456 
1776.000000	10.031489 
1775.000000	10.035004 
1774.000000	10.045707 
1773.000000	10.058778 
1772.000000	10.067230 
1771.000000	10.071434 
1770.000000	10.074964 
1769.000000	10.078167 
1768.000000	10.078575 
1767.000000	10.073450 
1766.000000	10.061747 
1765.000000	10.043362 
1764.000000	10.019053 
1763.000000	9.993042  
1762.000000	9.973691  
1761.000000	9.964282  
1760.000000	9.951745  
1759.000000	9.928708  
1758.000000	9.905226  
1757.000000	9.897888  
1756.000000	9.908607  
1755.000000	9.923487  
1754.000000	9.933208  
1753.000000	9.935809  
1752.000000	9.922443  
1751.000000	9.885171  
1750.000000	9.836413  
1749.000000	9.797554  
1748.000000	9.781597  
1747.000000	9.786046  
1746.000000	9.801723  
1745.000000	9.815854  
1744.000000	9.813166  
1743.000000	9.792463  
1742.000000	9.772578  
1741.000000	9.776110  
1740.000000	9.802845  
1739.000000	9.823735  
1738.000000	9.812591  
1737.000000	9.784039  
1736.000000	9.771605  
1735.000000	9.778029  
1734.000000	9.773758  
1733.000000	9.744686  
1732.000000	9.706542  
1731.000000	9.688503  
1730.000000	9.700605  
1729.000000	9.720572  
1728.000000	9.722448  
1727.000000	9.702827  
1726.000000	9.678680  
1725.000000	9.666752  
1724.000000	9.674259  
1723.000000	9.699615  
1722.000000	9.724480  
1721.000000	9.727683  
1720.000000	9.705418  
1719.000000	9.674280  
1718.000000	9.664834  
1717.000000	9.697633  
1716.000000	9.748125  
1715.000000	9.772773  
1714.000000	9.760291  
1713.000000	9.728885  
1712.000000	9.703822  
1711.000000	9.697964  
1710.000000	9.703967  
1709.000000	9.703521  
1708.000000	9.686267  
1707.000000	9.663510  
1706.000000	9.655813  
1705.000000	9.660837  
1704.000000	9.651442  
1703.000000	9.614556  
1702.000000	9.572426  
1701.000000	9.561125  
1700.000000	9.607277  
1699.000000	9.673001  
1698.000000	9.698056  
1697.000000	9.696486  
1696.000000	9.695591  
1695.000000	9.692578  
1694.000000	9.667313  
1693.000000	9.622141  
1692.000000	9.590491  
1691.000000	9.593404  
1690.000000	9.624261  
1689.000000	9.659320  
1688.000000	9.672716  
1687.000000	9.660261  
1686.000000	9.644290  
1685.000000	9.645512  
1684.000000	9.663133  
1683.000000	9.658937  
1682.000000	9.610730  
1681.000000	9.561439  
1680.000000	9.550697  
1679.000000	9.566881  
1678.000000	9.577455  
1677.000000	9.568572  
1676.000000	9.548542  
1675.000000	9.532885  
1674.000000	9.524841  
1673.000000	9.512682  
1672.000000	9.492360  
1671.000000	9.468949  
1670.000000	9.444698  
1669.000000	9.431983  
1668.000000	9.437296  
1667.000000	9.448226  
1666.000000	9.454499  
1665.000000	9.455670  
1664.000000	9.453863  
1663.000000	9.452166  
1662.000000	9.453373  
1661.000000	9.455885  
1660.000000	9.451697  
1659.000000	9.440216  
1658.000000	9.427167  
1657.000000	9.417133  
1656.000000	9.413301  
1655.000000	9.419996  
1654.000000	9.435368  
1653.000000	9.469864  
1652.000000	9.518204  
1651.000000	9.509381  
1650.000000	9.444463  
1649.000000	9.379703  
1648.000000	9.330640  
1647.000000	9.303568  
1646.000000	9.322102  
1645.000000	9.377787  
1644.000000	9.428865  
1643.000000	9.455759  
1642.000000	9.464320  
1641.000000	9.467308  
1640.000000	9.469904  
1639.000000	9.469655  
1638.000000	9.460757  
1637.000000	9.435885  
1636.000000	9.400041  
1635.000000	9.378910  
1634.000000	9.378982  
1633.000000	9.377089  
1632.000000	9.374534  
1631.000000	9.383153  
1630.000000	9.407253  
1629.000000	9.448899  
1628.000000	9.503434  
1627.000000	9.549811  
1626.000000	9.562795  
1625.000000	9.537688  
1624.000000	9.494265  
1623.000000	9.466681  
1622.000000	9.474172  
1621.000000	9.504147  
1620.000000	9.538743  
1619.000000	9.577071  
1618.000000	9.619360  
1617.000000	9.656731  
1616.000000	9.680491  
1615.000000	9.685784  
1614.000000	9.680332  
1613.000000	9.682462  
1612.000000	9.697958  
1611.000000	9.713270  
1610.000000	9.715255  
1609.000000	9.706992  
1608.000000	9.698936  
1607.000000	9.693771  
1606.000000	9.685810  
1605.000000	9.672126  
1604.000000	9.655536  
1603.000000	9.644416  
1602.000000	9.643018  
1601.000000	9.645373  
1600.000000	9.644591  
1599.000000	9.640510  
1598.000000	9.633133  
1597.000000	9.614070  
1596.000000	9.575121  
1595.000000	9.524146  
1594.000000	9.483003  
1593.000000	9.468335  
1592.000000	9.480667  
1591.000000	9.512111  
1590.000000	9.552206  
1589.000000	9.584551  
1588.000000	9.589255  
1587.000000	9.558507  
1586.000000	9.507121  
1585.000000	9.463427  
1584.000000	9.445572  
1583.000000	9.451493  
1582.000000	9.473552  
1581.000000	9.504776  
1580.000000	9.539340  
1579.000000	9.572193  
1578.000000	9.595002  
1577.000000	9.589102  
1576.000000	9.554246  
1575.000000	9.523348  
1574.000000	9.512390  
1573.000000	9.512672  
1572.000000	9.513535  
1571.000000	9.499255  
1570.000000	9.458571  
1569.000000	9.406764  
1568.000000	9.366862  
1567.000000	9.345081  
1566.000000	9.338852  
1565.000000	9.336563  
1564.000000	9.326056  
1563.000000	9.312525  
1562.000000	9.315798  
1561.000000	9.338777  
1560.000000	9.344115  
1559.000000	9.316069  
1558.000000	9.320711  
1557.000000	9.351759  
1556.000000	9.353596  
1555.000000	9.333292  
1554.000000	9.313952  
1553.000000	9.309077  
1552.000000	9.317603  
1551.000000	9.335930  
1550.000000	9.354350  
1549.000000	9.356305  
1548.000000	9.335634  
1547.000000	9.299639  
1546.000000	9.263266  
1545.000000	9.236957  
1544.000000	9.227206  
1543.000000	9.240010  
1542.000000	9.273998  
1541.000000	9.305671  
1540.000000	9.304631  
1539.000000	9.271399  
1538.000000	9.229551  
1537.000000	9.198788  
1536.000000	9.198520  
1535.000000	9.220892  
1534.000000	9.229790  
1533.000000	9.210082  
1532.000000	9.191588  
1531.000000	9.202492  
1530.000000	9.230829  
1529.000000	9.240643  
1528.000000	9.208984  
1527.000000	9.155155  
1526.000000	9.126566  
1525.000000	9.143231  
1524.000000	9.177317  
1523.000000	9.193204  
1522.000000	9.177189  
1521.000000	9.146524  
1520.000000	9.124523  
1519.000000	9.112070  
1518.000000	9.107843  
1517.000000	9.107368  
1516.000000	9.098987  
1515.000000	9.077495  
1514.000000	9.049278  
1513.000000	9.025594  
1512.000000	9.010863  
1511.000000	9.005830  
1510.000000	9.009663  
1509.000000	9.015701  
1508.000000	8.997887  
1507.000000	8.939081  
1506.000000	8.890894  
1505.000000	8.894356  
1504.000000	8.910310  
1503.000000	8.919363  
1502.000000	8.929971  
1501.000000	8.941181  
1500.000000	8.944566  
1499.000000	8.935242  
1498.000000	8.917164  
1497.000000	8.893448  
1496.000000	8.862606  
1495.000000	8.822710  
1494.000000	8.783194  
1493.000000	8.766653  
1492.000000	8.781802  
1491.000000	8.806650  
1490.000000	8.812440  
1489.000000	8.806615  
1488.000000	8.817878  
1487.000000	8.844192  
1486.000000	8.856421  
1485.000000	8.846152  
1484.000000	8.830748  
1483.000000	8.822901  
1482.000000	8.817289  
1481.000000	8.801059  
1480.000000	8.778436  
1479.000000	8.766837  
1478.000000	8.776831  
1477.000000	8.801646  
1476.000000	8.826220  
1475.000000	8.836780  
1474.000000	8.823476  
1473.000000	8.785137  
1472.000000	8.736864  
1471.000000	8.697679  
1470.000000	8.667089  
1469.000000	8.639460  
1468.000000	8.613396  
1467.000000	8.584886  
1466.000000	8.549643  
1465.000000	8.517937  
1464.000000	8.510972  
1463.000000	8.535243  
1462.000000	8.574452  
1461.000000	8.609902  
1460.000000	8.629178  
1459.000000	8.619121  
1458.000000	8.564736  
1457.000000	8.476416  
1456.000000	8.403510  
1455.000000	8.367852  
1454.000000	8.359035  
1453.000000	8.370571  
1452.000000	8.392628  
1451.000000	8.417579  
1450.000000	8.447646  
1449.000000	8.488195  
1448.000000	8.533262  
1447.000000	8.559466  
1446.000000	8.544912  
1445.000000	8.490030  
1444.000000	8.412848  
1443.000000	8.342033  
1442.000000	8.298519  
1441.000000	8.284969  
1440.000000	8.294046  
1439.000000	8.320346  
1438.000000	8.352838  
1437.000000	8.366230  
1436.000000	8.344190  
1435.000000	8.297051  
1434.000000	8.245491  
1433.000000	8.202404  
1432.000000	8.174950  
1431.000000	8.169815  
1430.000000	8.186123  
1429.000000	8.204098  
1428.000000	8.203939  
1427.000000	8.191111  
1426.000000	8.190856  
1425.000000	8.214699  
1424.000000	8.237840  
1423.000000	8.230524  
1422.000000	8.197014  
1421.000000	8.167389  
1420.000000	8.163103  
1419.000000	8.179587  
1418.000000	8.192489  
1417.000000	8.185083  
1416.000000	8.165540  
1415.000000	8.146849  
1414.000000	8.129239  
1413.000000	8.106486  
1412.000000	8.080240  
1411.000000	8.061210  
1410.000000	8.054161  
1409.000000	8.051407  
1408.000000	8.047162  
1407.000000	8.045604  
1406.000000	8.051823  
1405.000000	8.060548  
1404.000000	8.056915  
1403.000000	8.036362  
1402.000000	8.012596  
1401.000000	8.004985  
1400.000000	8.024295  
1399.000000	8.066469  
1398.000000	8.109897  
1397.000000	8.122331  
1396.000000	8.081102  
1395.000000	7.996303  
1394.000000	7.919733  
1393.000000	7.897925  
1392.000000	7.921439  
1391.000000	7.946540  
1390.000000	7.940473  
1389.000000	7.903579  
1388.000000	7.865775  
1387.000000	7.859010  
1386.000000	7.884335  
1385.000000	7.915163  
1384.000000	7.928965  
1383.000000	7.922350  
1382.000000	7.903115  
1381.000000	7.880113  
1380.000000	7.858938  
1379.000000	7.841081  
1378.000000	7.825075  
1377.000000	7.806376  
1376.000000	7.780309  
1375.000000	7.749964  
1374.000000	7.730521  
1373.000000	7.733691  
1372.000000	7.750185  
1371.000000	7.760488  
1370.000000	7.755153  
1369.000000	7.737083  
1368.000000	7.710496  
1367.000000	7.677708  
1366.000000	7.644601  
1365.000000	7.623142  
1364.000000	7.623281  
1363.000000	7.642855  
1362.000000	7.666992  
1361.000000	7.677902  
1360.000000	7.665264  
1359.000000	7.631296  
1358.000000	7.591760  
1357.000000	7.568792  
1356.000000	7.575142  
1355.000000	7.605056  
1354.000000	7.643340  
1353.000000	7.678764  
1352.000000	7.702717  
1351.000000	7.699569  
1350.000000	7.654805  
1349.000000	7.578189  
1348.000000	7.506221  
1347.000000	7.475295  
1346.000000	7.492160  
1345.000000	7.532742  
1344.000000	7.564311  
1343.000000	7.566727  
1342.000000	7.537178  
1341.000000	7.484411  
1340.000000	7.424410  
1339.000000	7.378044  
1338.000000	7.362217  
1337.000000	7.378670  
1336.000000	7.413394  
1335.000000	7.447030  
1334.000000	7.467089  
1333.000000	7.472143  
1332.000000	7.465540  
1331.000000	7.449024  
1330.000000	7.425349  
1329.000000	7.402371  
1328.000000	7.387648  
1327.000000	7.380083  
1326.000000	7.373536  
1325.000000	7.368124  
1324.000000	7.369627  
1323.000000	7.376494  
1322.000000	7.373995  
1321.000000	7.347659  
1320.000000	7.301552  
1319.000000	7.258726  
1318.000000	7.240741  
1317.000000	7.248253  
1316.000000	7.263944  
1315.000000	7.270614  
1314.000000	7.262976  
1313.000000	7.245564  
1312.000000	7.224445  
1311.000000	7.203238  
1310.000000	7.185470  
1309.000000	7.175228  
1308.000000	7.172281  
1307.000000	7.169068  
1306.000000	7.157039  
1305.000000	7.135595  
1304.000000	7.111502  
1303.000000	7.091499  
1302.000000	7.078401  
1301.000000	7.072630  
1300.000000	7.072572  
1299.000000	7.073761  
1298.000000	7.072281  
1297.000000	7.069609  
1296.000000	7.069674  
1295.000000	7.071794  
1294.000000	7.072723  
1293.000000	7.074778  
1292.000000	7.083949  
1291.000000	7.098171  
1290.000000	7.105237  
1289.000000	7.096608  
1288.000000	7.078028  
1287.000000	7.062932  
1286.000000	7.059847  
1285.000000	7.068260  
1284.000000	7.079200  
1283.000000	7.075487  
1282.000000	7.041557  
1281.000000	6.983216  
1280.000000	6.931555  
1279.000000	6.915971  
1278.000000	6.934333  
1277.000000	6.957652  
1276.000000	6.962177  
1275.000000	6.947770  
1274.000000	6.927002  
1273.000000	6.908426  
1272.000000	6.893886  
1271.000000	6.882627  
1270.000000	6.871383  
1269.000000	6.855490  
1268.000000	6.836237  
1267.000000	6.824153  
1266.000000	6.829996  
1265.000000	6.852728  
1264.000000	6.877401  
1263.000000	6.884615  
1262.000000	6.864570  
1261.000000	6.825483  
1260.000000	6.787740  
1259.000000	6.767085  
1258.000000	6.763133  
1257.000000	6.764197  
1256.000000	6.759671  
1255.000000	6.746103  
1254.000000	6.727615  
1253.000000	6.715596  
1252.000000	6.723032  
1251.000000	6.751191  
1250.000000	6.783703  
1249.000000	6.801625  
1248.000000	6.802995  
1247.000000	6.798901  
1246.000000	6.792425  
1245.000000	6.774070  
1244.000000	6.740326  
1243.000000	6.703796  
1242.000000	6.677122  
1241.000000	6.655886  
1240.000000	6.627518  
1239.000000	6.591941  
1238.000000	6.562156  
1237.000000	6.545724  
1236.000000	6.538121  
1235.000000	6.537271  
1234.000000	6.553214  
1233.000000	6.596236  
1232.000000	6.660711  
1231.000000	6.725541  
1230.000000	6.768115  
1229.000000	6.775329  
1228.000000	6.744257  
1227.000000	6.683877  
1226.000000	6.621882  
1225.000000	6.594624  
1224.000000	6.616622  
1223.000000	6.663644  
1222.000000	6.693066  
1221.000000	6.682602  
1220.000000	6.644266  
1219.000000	6.599874  
1218.000000	6.554051  
1217.000000	6.499275  
1216.000000	6.440143  
1215.000000	6.399161  
1214.000000	6.394777  
1213.000000	6.422144  
1212.000000	6.460799  
1211.000000	6.496333  
1210.000000	6.531233  
1209.000000	6.574028  
1208.000000	6.617555  
1207.000000	6.633131  
1206.000000	6.595095  
1205.000000	6.513689  
1204.000000	6.435174  
1203.000000	6.402527  
1202.000000	6.419840  
1201.000000	6.459613  
1200.000000	6.497073  
1199.000000	6.525952  
1198.000000	6.544619  
1197.000000	6.543584  
1196.000000	6.516316  
1195.000000	6.475764  
1194.000000	6.448061  
1193.000000	6.445500  
1192.000000	6.449662  
1191.000000	6.426679  
1190.000000	6.362267  
1189.000000	6.280605  
1188.000000	6.224958  
1187.000000	6.219324  
1186.000000	6.252537  
1185.000000	6.297534  
1184.000000	6.335760  
1183.000000	6.361308  
1182.000000	6.372479  
1181.000000	6.367870  
1180.000000	6.349089  
1179.000000	6.320754  
1178.000000	6.288171  
1177.000000	6.258729  
1176.000000	6.239840  
1175.000000	6.230319  
1174.000000	6.221594  
1173.000000	6.213132  
1172.000000	6.215565  
1171.000000	6.229555  
1170.000000	6.234840  
1169.000000	6.215550  
1168.000000	6.187243  
1167.000000	6.180425  
1166.000000	6.201013  
1165.000000	6.225527  
1164.000000	6.234046  
1163.000000	6.230646  
1162.000000	6.229959  
1161.000000	6.237904  
1160.000000	6.248979  
1159.000000	6.250542  
1158.000000	6.228678  
1157.000000	6.184217  
1156.000000	6.143556  
1155.000000	6.135914  
1154.000000	6.155736  
1153.000000	6.165350  
1152.000000	6.141523  
1151.000000	6.102917  
1150.000000	6.083836  
1149.000000	6.097914  
1148.000000	6.137662  
1147.000000	6.189567  
1146.000000	6.231722  
1145.000000	6.232482  
1144.000000	6.176486  
1143.000000	6.090697  
1142.000000	6.027254  
1141.000000	6.019426  
1140.000000	6.063440  
1139.000000	6.134324  
1138.000000	6.205387  
1137.000000	6.257443  
1136.000000	6.283925  
1135.000000	6.292278  
1134.000000	6.293788  
1133.000000	6.291013  
1132.000000	6.280877  
1131.000000	6.263460  
1130.000000	6.237327  
1129.000000	6.194264  
1128.000000	6.132989  
1127.000000	6.073734  
1126.000000	6.044259  
1125.000000	6.052283  
1124.000000	6.083724  
1123.000000	6.122029  
1122.000000	6.152537  
1121.000000	6.155148  
1120.000000	6.117381  
1119.000000	6.059773  
1118.000000	6.026054  
1117.000000	6.038800  
1116.000000	6.084329  
1115.000000	6.143978  
1114.000000	6.216454  
1113.000000	6.300421  
1112.000000	6.375190  
1111.000000	6.417878  
1110.000000	6.428034  
1109.000000	6.416854  
1108.000000	6.386368  
1107.000000	6.340675  
1106.000000	6.302167  
1105.000000	6.291594  
1104.000000	6.300419  
1103.000000	6.303648  
1102.000000	6.298819  
1101.000000	6.309919  
1100.000000	6.346123  
1099.000000	6.383321  
1098.000000	6.397853  
1097.000000	6.394971  
1096.000000	6.390655  
1095.000000	6.383636  
1094.000000	6.364196  
1093.000000	6.341904  
1092.000000	6.344546  
1091.000000	6.389073  
1090.000000	6.465984  
1089.000000	6.548829  
1088.000000	6.605403  
1087.000000	6.605373  
1086.000000	6.540513  
1085.000000	6.445818  
1084.000000	6.382684  
1083.000000	6.383220  
1082.000000	6.413893  
1081.000000	6.408301  
1080.000000	6.339638  
1079.000000	6.250773  
1078.000000	6.207471  
1077.000000	6.229775  
1076.000000	6.280050  
1075.000000	6.313469  
1074.000000	6.319630  
1073.000000	6.312310  
1072.000000	6.304594  
1071.000000	6.307285  
1070.000000	6.334424  
1069.000000	6.390893  
1068.000000	6.453072  
1067.000000	6.480448  
1066.000000	6.457757  
1065.000000	6.411051  
1064.000000	6.381338  
1063.000000	6.397002  
1062.000000	6.462873  
1061.000000	6.553597  
1060.000000	6.616124  
1059.000000	6.604236  
1058.000000	6.526448  
1057.000000	6.443851  
1056.000000	6.408800  
1055.000000	6.420613  
1054.000000	6.448966  
1053.000000	6.477592  
1052.000000	6.506379  
1051.000000	6.528985  
1050.000000	6.535397  
1049.000000	6.531509  
1048.000000	6.532545  
1047.000000	6.540856  
1046.000000	6.553865  
1045.000000	6.581743  
1044.000000	6.631184  
1043.000000	6.684488  
1042.000000	6.716198  
1041.000000	6.724877  
1040.000000	6.730433  
1039.000000	6.740717  
1038.000000	6.741433  
1037.000000	6.728292  
1036.000000	6.727798  
1035.000000	6.769158  
1034.000000	6.850621  
1033.000000	6.942034  
1032.000000	7.009654  
1031.000000	7.037204  
1030.000000	7.033531  
1029.000000	7.021271  
1028.000000	7.012658  
1027.000000	7.003618  
1026.000000	6.998152  
1025.000000	7.020136  
1024.000000	7.080352  
1023.000000	7.147736  
1022.000000	7.183471  
1021.000000	7.194448  
1020.000000	7.219012  
1019.000000	7.263543  
1018.000000	7.292606  
1017.000000	7.288669  
1016.000000	7.280491  
1015.000000	7.294726  
1014.000000	7.315679  
1013.000000	7.317076  
1012.000000	7.305858  
1011.000000	7.308968  
1010.000000	7.336761  
1009.000000	7.379664  
1008.000000	7.422514  
1007.000000	7.450622  
1006.000000	7.470647  
1005.000000	7.539634  
1004.000000	7.727707  
1003.000000	8.014567  
1002.000000	8.255525  
1001.000000	8.291480  
1000.000000	8.107138  
999.000000	 7.860202  
998.000000	 7.712202  
997.000000	 7.679295  
996.000000	 7.695951  
995.000000	 7.730365  
994.000000	 7.780413  
993.000000	 7.824952  
992.000000	 7.834649  
991.000000	 7.812978  
990.000000	 7.791077  
989.000000	 7.787945  
988.000000	 7.799581  
987.000000	 7.821217  
986.000000	 7.857776  
985.000000	 7.911971  
984.000000	 7.977019  
983.000000	 8.042812  
982.000000	 8.101782  
981.000000	 8.150376  
980.000000	 8.188054  
979.000000	 8.209333  
978.000000	 8.199351  
977.000000	 8.153565  
976.000000	 8.104270  
975.000000	 8.105228  
974.000000	 8.176322  
973.000000	 8.279526  
972.000000	 8.362430  
971.000000	 8.409961  
970.000000	 8.438906  
969.000000	 8.459700  
968.000000	 8.470046  
967.000000	 8.477846  
966.000000	 8.501497  
965.000000	 8.544423  
964.000000	 8.589030  
963.000000	 8.620482  
962.000000	 8.642635  
961.000000	 8.666647  
960.000000	 8.696300  
959.000000	 8.729329  
958.000000	 8.764158  
957.000000	 8.802341  
956.000000	 8.849619  
955.000000	 8.912861  
954.000000	 8.989319  
953.000000	 9.061358  
952.000000	 9.109678  
951.000000	 9.129121  
950.000000	 9.124770  
949.000000	 9.100660  
948.000000	 9.066396  
947.000000	 9.048400  
946.000000	 9.071927  
945.000000	 9.129739  
944.000000	 9.189012  
943.000000	 9.231705  
942.000000	 9.267926  
941.000000	 9.306437  
940.000000	 9.335479  
939.000000	 9.343943  
938.000000	 9.341794  
937.000000	 9.344174  
936.000000	 9.350734  
935.000000	 9.356578  
934.000000	 9.370278  
933.000000	 9.403929  
932.000000	 9.454517  
931.000000	 9.509869  
930.000000	 9.564197  
929.000000	 9.613636  
928.000000	 9.647918  
927.000000	 9.665788  
926.000000	 9.689398  
925.000000	 9.740990  
924.000000	 9.808515  
923.000000	 9.855552  
922.000000	 9.867363  
921.000000	 9.868326  
920.000000	 9.888684  
919.000000	 9.931054  
918.000000	 9.978110  
917.000000	 10.019859 
916.000000	 10.061516 
915.000000	 10.110456 
914.000000	 10.165562 
913.000000	 10.219269 
912.000000	 10.264933 
911.000000	 10.300264 
910.000000	 10.322984 
909.000000	 10.325337 
908.000000	 10.302094 
907.000000	 10.268761 
906.000000	 10.259971 
905.000000	 10.295460 
904.000000	 10.353262 
903.000000	 10.392591 
902.000000	 10.402339 
901.000000	 10.411680 
900.000000	 10.451084 
899.000000	 10.518492 
898.000000	 10.586765 
897.000000	 10.628070 
896.000000	 10.626300 
895.000000	 10.585570 
894.000000	 10.539205 
893.000000	 10.533923 
892.000000	 10.589958 
891.000000	 10.683367 
890.000000	 10.775583 
889.000000	 10.851789 
888.000000	 10.920085 
887.000000	 10.983422 
886.000000	 11.030474 
885.000000	 11.051901 
884.000000	 11.050219 
883.000000	 11.033298 
882.000000	 11.010655 
881.000000	 10.999274 
880.000000	 11.022592 
879.000000	 11.096773 
878.000000	 11.218577 
877.000000	 11.365207 
876.000000	 11.504761 
875.000000	 11.607188 
874.000000	 11.651683 
873.000000	 11.635502 
872.000000	 11.581140 
871.000000	 11.531950 
870.000000	 11.528782 
869.000000	 11.577280 
868.000000	 11.637822 
867.000000	 11.659450 
866.000000	 11.630172 
865.000000	 11.588635 
864.000000	 11.584396 
863.000000	 11.635663 
862.000000	 11.728137 
861.000000	 11.839151 
860.000000	 11.949944 
859.000000	 12.044116 
858.000000	 12.110795 
857.000000	 12.150177 
856.000000	 12.168917 
855.000000	 12.173747 
854.000000	 12.175635 
853.000000	 12.192198 
852.000000	 12.233250 
851.000000	 12.285084 
850.000000	 12.320204 
849.000000	 12.324752 
848.000000	 12.310034 
847.000000	 12.299469 
846.000000	 12.311879 
845.000000	 12.353341 
844.000000	 12.412615 
843.000000	 12.463357 
842.000000	 12.483639 
841.000000	 12.479672 
840.000000	 12.482878 
839.000000	 12.518357 
838.000000	 12.581393 
837.000000	 12.648155 
836.000000	 12.702240 
835.000000	 12.743996 
834.000000	 12.780318 
833.000000	 12.815529 
832.000000	 12.850496 
831.000000	 12.884799 
830.000000	 12.920218 
829.000000	 12.960124 
828.000000	 12.999709 
827.000000	 13.021285 
826.000000	 13.013810 
825.000000	 13.002082 
824.000000	 13.041365 
823.000000	 13.165726 
822.000000	 13.345431 
821.000000	 13.509401 
820.000000	 13.607688 
819.000000	 13.640413 
818.000000	 13.630924 
817.000000	 13.591397 
816.000000	 13.526106 
815.000000	 13.456576 
814.000000	 13.420440 
813.000000	 13.440833 
812.000000	 13.508955 
811.000000	 13.598882 
810.000000	 13.693682 
809.000000	 13.794035 
808.000000	 13.903546 
807.000000	 14.009831 
806.000000	 14.081233 
805.000000	 14.087933 
804.000000	 14.036387 
803.000000	 13.979125 
802.000000	 13.972361 
801.000000	 14.017358 
800.000000	 14.060375 
799.000000	 14.063032 
798.000000	 14.055841 
797.000000	 14.103838 
796.000000	 14.231112 
795.000000	 14.397981 
794.000000	 14.545847 
793.000000	 14.644649 
792.000000	 14.698742 
791.000000	 14.729939 
790.000000	 14.762592 
789.000000	 14.807964 
788.000000	 14.851727 
787.000000	 14.866284 
786.000000	 14.844265 
785.000000	 14.814513 
784.000000	 14.821463 
783.000000	 14.892933 
782.000000	 15.022871 
781.000000	 15.171129 
780.000000	 15.281447 
779.000000	 15.319831 
778.000000	 15.305315 
777.000000	 15.293455 
776.000000	 15.322718 
775.000000	 15.383366 
774.000000	 15.438916 
773.000000	 15.464545 
772.000000	 15.461326 
771.000000	 15.447178 
770.000000	 15.442204 
769.000000	 15.455116 
768.000000	 15.479462 
767.000000	 15.510486 
766.000000	 15.564301 
765.000000	 15.663446 
764.000000	 15.796662 
763.000000	 15.911781 
762.000000	 15.966974 
761.000000	 15.979897 
760.000000	 16.009125 
759.000000	 16.090486 
758.000000	 16.202515 
757.000000	 16.290388 
756.000000	 16.317015 
755.000000	 16.298388 
754.000000	 16.295584 
753.000000	 16.363017 
752.000000	 16.496359 
751.000000	 16.636505 
750.000000	 16.726135 
749.000000	 16.752935 
748.000000	 16.740110 
747.000000	 16.715345 
746.000000	 16.699033 
745.000000	 16.707085 
744.000000	 16.746035 
743.000000	 16.808701 
742.000000	 16.884612 
741.000000	 16.966669 
740.000000	 17.042771 
739.000000	 17.096293 
738.000000	 17.125289 
737.000000	 17.150379 
736.000000	 17.193744 
735.000000	 17.259383 
734.000000	 17.340196 
733.000000	 17.430431 
732.000000	 17.522323 
731.000000	 17.602939 
730.000000	 17.666600 
729.000000	 17.721182 
728.000000	 17.770942 
727.000000	 17.804715 
726.000000	 17.811484 
725.000000	 17.798418 
724.000000	 17.785911 
723.000000	 17.793163 
722.000000	 17.832736 
721.000000	 17.904487 
720.000000	 17.985711 
719.000000	 18.047224 
718.000000	 18.091792 
717.000000	 18.149870 
716.000000	 18.230819 
715.000000	 18.311918 
714.000000	 18.382813 
713.000000	 18.463065 
712.000000	 18.556285 
711.000000	 18.626977 
710.000000	 18.659390 
709.000000	 18.703322 
708.000000	 18.811168 
707.000000	 18.956613 
706.000000	 19.067804 
705.000000	 19.124042 
704.000000	 19.168474 
703.000000	 19.230373 
702.000000	 19.289395 
701.000000	 19.324436 
700.000000	 19.345271 
699.000000	 19.364268 
698.000000	 19.384333 
697.000000	 19.429977 
696.000000	 19.542961 
695.000000	 19.715736 
694.000000	 19.865784 
693.000000	 19.911061 
692.000000	 19.850579 
691.000000	 19.753439 
690.000000	 19.696272 
689.000000	 19.732066 
688.000000	 19.880048 
687.000000	 20.102454 
686.000000	 20.314929 
685.000000	 20.455901 
684.000000	 20.534393 
683.000000	 20.588022 
682.000000	 20.614083 
681.000000	 20.585777 
680.000000	 20.531698 
679.000000	 20.537406 
678.000000	 20.647300 
677.000000	 20.797204 
676.000000	 20.887670 
675.000000	 20.894173 
674.000000	 20.880266 
673.000000	 20.927173 
672.000000	 21.046954 
671.000000	 21.173785 
670.000000	 21.236634 
669.000000	 21.235521 
668.000000	 21.132167 
667.000000	 20.918359 
666.000000	 20.937257 
665.000000	 21.285969 
664.000000	 21.653857 
663.000000	 21.832291 
662.000000	 21.823192 
661.000000	 21.788328 
660.000000	 21.866451 
659.000000	 22.026593 
658.000000	 22.136985 
657.000000	 22.151657 
656.000000	 22.166921 
655.000000	 22.271045 
654.000000	 22.391222 
653.000000	 22.412025 
652.000000	 22.320178 
651.000000	 22.252209 
650.000000	 22.292172 

