PE IR                   SPECTRUM    ASCII       PEDS        1.60        
  -1
~SP.SP
22/02/22
09:06:00.00
22/02/22
09:06:00.00
Administrator

450.000000
1









SPECTRUM 100,CPU32 MAIN 00.02.7000 27-JANUARY-2006 11:32:41
MIR TGS
MIR
OPTKBR
76073
0.200000

4.000000
STRONG
RATIO
SPECTRUM
MAGNITUDE
SLIDE HOLDER
DOUBLE

COMBINED


0


#HDR
-1
-1
#GR
CM-1
%T
0.00002384185791015625
0.0
4000.000000
-1.000000
3551
8
100.029810
99.558082
#DATA
4000.000000	100.001901 
3999.000000	100.001124 
3998.000000	100.000101 
3997.000000	100.000183 
3996.000000	100.002305 
3995.000000	100.006081 
3994.000000	100.009768 
3993.000000	100.011270 
3992.000000	100.009523 
3991.000000	100.005150 
3990.000000	100.000017 
3989.000000	99.996177  
3988.000000	99.994947  
3987.000000	99.996465  
3986.000000	99.999705  
3985.000000	100.002937 
3984.000000	100.004574 
3983.000000	100.003972 
3982.000000	100.001695 
3981.000000	99.999056  
3980.000000	99.997307  
3979.000000	99.997061  
3978.000000	99.998189  
3977.000000	100.000052 
3976.000000	100.001832 
3975.000000	100.002892 
3974.000000	100.003079 
3973.000000	100.002718 
3972.000000	100.002259 
3971.000000	100.001921 
3970.000000	100.001693 
3969.000000	100.001647 
3968.000000	100.002071 
3967.000000	100.003139 
3966.000000	100.004528 
3965.000000	100.005593 
3964.000000	100.005925 
3963.000000	100.005588 
3962.000000	100.004728 
3961.000000	100.003147 
3960.000000	100.000553 
3959.000000	99.997286  
3958.000000	99.994513  
3957.000000	99.993561  
3956.000000	99.994995  
3955.000000	99.998268  
3954.000000	100.002100 
3953.000000	100.005218 
3952.000000	100.006966 
3951.000000	100.007417 
3950.000000	100.007032 
3949.000000	100.006314 
3948.000000	100.005685 
3947.000000	100.005314 
3946.000000	100.004963 
3945.000000	100.004179 
3944.000000	100.002834 
3943.000000	100.001441 
3942.000000	100.000865 
3941.000000	100.001606 
3940.000000	100.003349 
3939.000000	100.005187 
3938.000000	100.006171 
3937.000000	100.005753 
3936.000000	100.004023 
3935.000000	100.001802 
3934.000000	100.000346 
3933.000000	100.000605 
3932.000000	100.002464 
3931.000000	100.004678 
3930.000000	100.005824 
3929.000000	100.005506 
3928.000000	100.004643 
3927.000000	100.004620 
3926.000000	100.006169 
3925.000000	100.008730 
3924.000000	100.010840 
3923.000000	100.011386 
3922.000000	100.010470 
3921.000000	100.008919 
3920.000000	100.007182 
3919.000000	100.005087 
3918.000000	100.002597 
3917.000000	100.000189 
3916.000000	99.998286  
3915.000000	99.996876  
3914.000000	99.996158  
3913.000000	99.996952  
3912.000000	99.999796  
3911.000000	100.003915 
3910.000000	100.007371 
3909.000000	100.008606 
3908.000000	100.007569 
3907.000000	100.005435 
3906.000000	100.003364 
3905.000000	100.001869 
3904.000000	100.001140 
3903.000000	100.001622 
3902.000000	100.003834 
3901.000000	100.007646 
3900.000000	100.012004 
3899.000000	100.015270 
3898.000000	100.016194 
3897.000000	100.014811 
3896.000000	100.012331 
3895.000000	100.010162 
3894.000000	100.008934 
3893.000000	100.008460 
3892.000000	100.008527 
3891.000000	100.009365 
3890.000000	100.010644 
3889.000000	100.011220 
3888.000000	100.010549 
3887.000000	100.009885 
3886.000000	100.011328 
3885.000000	100.015214 
3884.000000	100.019087 
3883.000000	100.020167 
3882.000000	100.017831 
3881.000000	100.013687 
3880.000000	100.010171 
3879.000000	100.008691 
3878.000000	100.008736 
3877.000000	100.009033 
3876.000000	100.009199 
3875.000000	100.010117 
3874.000000	100.012403 
3873.000000	100.014724 
3872.000000	100.014797 
3871.000000	100.012304 
3870.000000	100.009774 
3869.000000	100.009506 
3868.000000	100.010684 
3867.000000	100.011191 
3866.000000	100.010650 
3865.000000	100.009940 
3864.000000	100.009286 
3863.000000	100.008480 
3862.000000	100.008195 
3861.000000	100.009645 
3860.000000	100.012984 
3859.000000	100.016847 
3858.000000	100.019199 
3857.000000	100.018827 
3856.000000	100.016194 
3855.000000	100.013662 
3854.000000	100.014169 
3853.000000	100.018154 
3852.000000	100.022095 
3851.000000	100.022300 
3850.000000	100.018915 
3849.000000	100.014846 
3848.000000	100.012595 
3847.000000	100.012851 
3846.000000	100.014766 
3845.000000	100.016864 
3844.000000	100.018362 
3843.000000	100.019831 
3842.000000	100.022104 
3841.000000	100.025175 
3840.000000	100.028147 
3839.000000	100.029810 
3838.000000	100.029336 
3837.000000	100.026992 
3836.000000	100.023957 
3835.000000	100.021316 
3834.000000	100.019106 
3833.000000	100.016602 
3832.000000	100.013458 
3831.000000	100.010429 
3830.000000	100.008934 
3829.000000	100.009682 
3828.000000	100.012024 
3827.000000	100.014892 
3826.000000	100.017731 
3825.000000	100.020332 
3824.000000	100.022401 
3823.000000	100.023588 
3822.000000	100.023697 
3821.000000	100.022969 
3820.000000	100.021633 
3819.000000	100.019655 
3818.000000	100.017339 
3817.000000	100.015646 
3816.000000	100.015233 
3815.000000	100.014987 
3814.000000	100.013251 
3813.000000	100.010540 
3812.000000	100.009095 
3811.000000	100.009994 
3810.000000	100.011926 
3809.000000	100.012833 
3808.000000	100.012560 
3807.000000	100.013051 
3806.000000	100.015361 
3805.000000	100.017823 
3804.000000	100.018098 
3803.000000	100.015715 
3802.000000	100.012383 
3801.000000	100.010022 
3800.000000	100.008461 
3799.000000	100.006459 
3798.000000	100.004064 
3797.000000	100.002708 
3796.000000	100.003326 
3795.000000	100.004871 
3794.000000	100.005281 
3793.000000	100.003603 
3792.000000	100.000670 
3791.000000	99.998015  
3790.000000	99.996678  
3789.000000	99.996682  
3788.000000	99.997241  
3787.000000	99.997465  
3786.000000	99.997313  
3785.000000	99.997834  
3784.000000	100.000073 
3783.000000	100.003600 
3782.000000	100.006656 
3781.000000	100.007780 
3780.000000	100.007120 
3779.000000	100.006145 
3778.000000	100.005891 
3777.000000	100.005886 
3776.000000	100.005170 
3775.000000	100.003799 
3774.000000	100.002612 
3773.000000	100.001945 
3772.000000	100.001391 
3771.000000	100.000810 
3770.000000	100.000810 
3769.000000	100.002033 
3768.000000	100.004296 
3767.000000	100.006750 
3766.000000	100.008850 
3765.000000	100.010741 
3764.000000	100.012506 
3763.000000	100.013672 
3762.000000	100.013813 
3761.000000	100.012982 
3760.000000	100.011269 
3759.000000	100.008985 
3758.000000	100.007300 
3757.000000	100.007522 
3756.000000	100.009578 
3755.000000	100.012273 
3754.000000	100.014726 
3753.000000	100.016700 
3752.000000	100.017563 
3751.000000	100.016631 
3750.000000	100.015323 
3749.000000	100.016012 
3748.000000	100.018287 
3747.000000	100.019400 
3746.000000	100.017923 
3745.000000	100.015908 
3744.000000	100.016493 
3743.000000	100.018765 
3742.000000	100.019355 
3741.000000	100.017817 
3740.000000	100.016150 
3739.000000	100.015570 
3738.000000	100.015628 
3737.000000	100.015745 
3736.000000	100.015991 
3735.000000	100.016165 
3734.000000	100.015803 
3733.000000	100.015402 
3732.000000	100.016195 
3731.000000	100.018292 
3730.000000	100.020026 
3729.000000	100.019553 
3728.000000	100.016659 
3727.000000	100.012806 
3726.000000	100.009602 
3725.000000	100.007536 
3724.000000	100.006393 
3723.000000	100.005914 
3722.000000	100.005969 
3721.000000	100.006581 
3720.000000	100.007576 
3719.000000	100.008370 
3718.000000	100.008498 
3717.000000	100.008073 
3716.000000	100.007548 
3715.000000	100.007354 
3714.000000	100.007676 
3713.000000	100.008287 
3712.000000	100.008623 
3711.000000	100.008492 
3710.000000	100.008282 
3709.000000	100.008178 
3708.000000	100.007973 
3707.000000	100.007589 
3706.000000	100.007192 
3705.000000	100.006947 
3704.000000	100.006935 
3703.000000	100.007253 
3702.000000	100.008076 
3701.000000	100.009576 
3700.000000	100.011461 
3699.000000	100.012855 
3698.000000	100.013164 
3697.000000	100.012634 
3696.000000	100.011764 
3695.000000	100.010840 
3694.000000	100.010358 
3693.000000	100.011153 
3692.000000	100.013584 
3691.000000	100.016780 
3690.000000	100.019031 
3689.000000	100.019234 
3688.000000	100.017558 
3687.000000	100.014502 
3686.000000	100.010532 
3685.000000	100.006875 
3684.000000	100.005062 
3683.000000	100.005632 
3682.000000	100.007829 
3681.000000	100.010886 
3680.000000	100.014890 
3679.000000	100.019581 
3678.000000	100.023432 
3677.000000	100.024884 
3676.000000	100.024177 
3675.000000	100.023080 
3674.000000	100.022484 
3673.000000	100.021605 
3672.000000	100.019941 
3671.000000	100.018295 
3670.000000	100.017409 
3669.000000	100.016747 
3668.000000	100.015304 
3667.000000	100.012722 
3666.000000	100.009375 
3665.000000	100.006101 
3664.000000	100.003742 
3663.000000	100.002813 
3662.000000	100.003241 
3661.000000	100.004260 
3660.000000	100.004739 
3659.000000	100.003999 
3658.000000	100.002655 
3657.000000	100.002653 
3656.000000	100.005832 
3655.000000	100.011754 
3654.000000	100.017926 
3653.000000	100.022359 
3652.000000	100.025139 
3651.000000	100.027361 
3650.000000	100.029058 
3649.000000	100.029026 
3648.000000	100.026912 
3647.000000	100.023916 
3646.000000	100.021386 
3645.000000	100.019802 
3644.000000	100.018740 
3643.000000	100.017510 
3642.000000	100.015626 
3641.000000	100.012909 
3640.000000	100.009586 
3639.000000	100.006476 
3638.000000	100.004589 
3637.000000	100.004245 
3636.000000	100.004890 
3635.000000	100.006003 
3634.000000	100.007721 
3633.000000	100.010083 
3632.000000	100.012271 
3631.000000	100.013083 
3630.000000	100.012160 
3629.000000	100.010515 
3628.000000	100.009393 
3627.000000	100.008754 
3626.000000	100.008012 
3625.000000	100.007698 
3624.000000	100.009006 
3623.000000	100.011957 
3622.000000	100.014905 
3621.000000	100.016005 
3620.000000	100.014767 
3619.000000	100.012249 
3618.000000	100.009931 
3617.000000	100.008262 
3616.000000	100.006787 
3615.000000	100.005494 
3614.000000	100.005101 
3613.000000	100.005912 
3612.000000	100.007044 
3611.000000	100.007289 
3610.000000	100.006630 
3609.000000	100.006374 
3608.000000	100.007533 
3607.000000	100.009591 
3606.000000	100.011210 
3605.000000	100.011682 
3604.000000	100.011357 
3603.000000	100.010958 
3602.000000	100.010919 
3601.000000	100.011239 
3600.000000	100.011401 
3599.000000	100.010681 
3598.000000	100.009011 
3597.000000	100.007158 
3596.000000	100.005934 
3595.000000	100.005403 
3594.000000	100.005015 
3593.000000	100.004433 
3592.000000	100.003924 
3591.000000	100.003788 
3590.000000	100.003919 
3589.000000	100.003984 
3588.000000	100.003684 
3587.000000	100.002958 
3586.000000	100.002040 
3585.000000	100.001351 
3584.000000	100.001248 
3583.000000	100.001690 
3582.000000	100.002125 
3581.000000	100.002025 
3580.000000	100.001548 
3579.000000	100.001399 
3578.000000	100.002006 
3577.000000	100.003006 
3576.000000	100.003588 
3575.000000	100.003325 
3574.000000	100.002632 
3573.000000	100.002496 
3572.000000	100.003686 
3571.000000	100.005987 
3570.000000	100.008209 
3569.000000	100.009108 
3568.000000	100.008238 
3567.000000	100.006005 
3566.000000	100.003230 
3565.000000	100.000732 
3564.000000	99.999193  
3563.000000	99.999058  
3562.000000	100.000134 
3561.000000	100.001519 
3560.000000	100.002312 
3559.000000	100.002334 
3558.000000	100.002055 
3557.000000	100.002044 
3556.000000	100.002697 
3555.000000	100.004277 
3554.000000	100.006741 
3553.000000	100.009369 
3552.000000	100.010885 
3551.000000	100.010364 
3550.000000	100.008136 
3549.000000	100.005634 
3548.000000	100.004220 
3547.000000	100.004100 
3546.000000	100.004560 
3545.000000	100.005115 
3544.000000	100.005948 
3543.000000	100.007108 
3542.000000	100.007835 
3541.000000	100.007203 
3540.000000	100.005227 
3539.000000	100.002942 
3538.000000	100.001399 
3537.000000	100.000932 
3536.000000	100.001428 
3535.000000	100.002817 
3534.000000	100.004899 
3533.000000	100.006927 
3532.000000	100.007819 
3531.000000	100.006911 
3530.000000	100.004498 
3529.000000	100.001750 
3528.000000	100.000092 
3527.000000	100.000357 
3526.000000	100.002185 
3525.000000	100.004225 
3524.000000	100.005126 
3523.000000	100.004560 
3522.000000	100.003335 
3521.000000	100.002484 
3520.000000	100.002224 
3519.000000	100.001790 
3518.000000	100.000296 
3517.000000	99.997813  
3516.000000	99.995603  
3515.000000	99.995066  
3514.000000	99.996327  
3513.000000	99.998033  
3512.000000	99.998769  
3511.000000	99.998459  
3510.000000	99.998219  
3509.000000	99.999051  
3508.000000	100.000986 
3507.000000	100.003305 
3506.000000	100.005087 
3505.000000	100.005393 
3504.000000	100.003538 
3503.000000	99.999830  
3502.000000	99.995951  
3501.000000	99.993966  
3500.000000	99.994650  
3499.000000	99.996853  
3498.000000	99.998645  
3497.000000	99.999092  
3496.000000	99.999051  
3495.000000	100.000192 
3494.000000	100.003177 
3493.000000	100.006813 
3492.000000	100.009002 
3491.000000	100.008470 
3490.000000	100.005573 
3489.000000	100.001846 
3488.000000	99.999098  
3487.000000	99.998613  
3486.000000	100.000462 
3485.000000	100.003174 
3484.000000	100.004574 
3483.000000	100.003563 
3482.000000	100.001129 
3481.000000	99.999311  
3480.000000	99.999142  
3479.000000	100.000023 
3478.000000	100.000946 
3477.000000	100.001683 
3476.000000	100.002434 
3475.000000	100.002865 
3474.000000	100.002186 
3473.000000	100.000230 
3472.000000	99.998007  
3471.000000	99.996885  
3470.000000	99.997270  
3469.000000	99.998250  
3468.000000	99.998617  
3467.000000	99.998150  
3466.000000	99.997806  
3465.000000	99.998545  
3464.000000	100.000078 
3463.000000	100.000946 
3462.000000	99.999954  
3461.000000	99.997431  
3460.000000	99.994960  
3459.000000	99.993948  
3458.000000	99.994600  
3457.000000	99.996160  
3456.000000	99.997841  
3455.000000	99.999349  
3454.000000	100.000743 
3453.000000	100.002176 
3452.000000	100.003790 
3451.000000	100.005598 
3450.000000	100.007247 
3449.000000	100.007993 
3448.000000	100.007208 
3447.000000	100.005038 
3446.000000	100.002474 
3445.000000	100.000585 
3444.000000	99.999700  
3443.000000	99.999470  
3442.000000	99.999616  
3441.000000	100.000338 
3440.000000	100.001857 
3439.000000	100.003762 
3438.000000	100.005157 
3437.000000	100.005507 
3436.000000	100.005128 
3435.000000	100.004660 
3434.000000	100.004235 
3433.000000	100.003457 
3432.000000	100.002128 
3431.000000	100.000672 
3430.000000	99.999666  
3429.000000	99.999147  
3428.000000	99.998650  
3427.000000	99.997892  
3426.000000	99.997144  
3425.000000	99.996815  
3424.000000	99.996912  
3423.000000	99.997200  
3422.000000	99.997809  
3421.000000	99.999318  
3420.000000	100.002044 
3419.000000	100.005362 
3418.000000	100.007908 
3417.000000	100.008459 
3416.000000	100.006720 
3415.000000	100.003540 
3414.000000	100.000484 
3413.000000	99.998892  
3412.000000	99.998970  
3411.000000	99.999792  
3410.000000	100.000366 
3409.000000	100.000599 
3408.000000	100.000987 
3407.000000	100.001540 
3406.000000	100.001574 
3405.000000	100.000749 
3404.000000	99.999855  
3403.000000	100.000091 
3402.000000	100.001652 
3401.000000	100.003426 
3400.000000	100.004128 
3399.000000	100.003463 
3398.000000	100.002084 
3397.000000	100.000735 
3396.000000	99.999723  
3395.000000	99.999041  
3394.000000	99.998592  
3393.000000	99.998141  
3392.000000	99.997345  
3391.000000	99.996186  
3390.000000	99.995349  
3389.000000	99.995833  
3388.000000	99.997956  
3387.000000	100.000802 
3386.000000	100.002860 
3385.000000	100.003221 
3384.000000	100.002143 
3383.000000	100.000589 
3382.000000	99.999413  
3381.000000	99.998912  
3380.000000	99.998865  
3379.000000	99.998845  
3378.000000	99.998652  
3377.000000	99.998576  
3376.000000	99.999138  
3375.000000	100.000459 
3374.000000	100.002017 
3373.000000	100.003143 
3372.000000	100.003624 
3371.000000	100.003682 
3370.000000	100.003537 
3369.000000	100.003261 
3368.000000	100.002941 
3367.000000	100.002558 
3366.000000	100.001695 
3365.000000	99.999862  
3364.000000	99.997448  
3363.000000	99.996006  
3362.000000	99.997054  
3361.000000	100.000501 
3360.000000	100.004519 
3359.000000	100.007023 
3358.000000	100.007140 
3357.000000	100.005395 
3356.000000	100.002905 
3355.000000	100.000631 
3354.000000	99.999088  
3353.000000	99.998439  
3352.000000	99.998785  
3351.000000	100.000355 
3350.000000	100.003144 
3349.000000	100.006266 
3348.000000	100.008053 
3347.000000	100.007356 
3346.000000	100.004780 
3345.000000	100.002250 
3344.000000	100.001184 
3343.000000	100.001310 
3342.000000	100.001310 
3341.000000	100.000248 
3340.000000	99.998210  
3339.000000	99.995966  
3338.000000	99.994486  
3337.000000	99.994616  
3336.000000	99.996675  
3335.000000	100.000055 
3334.000000	100.003438 
3333.000000	100.005587 
3332.000000	100.006034 
3331.000000	100.005163 
3330.000000	100.003854 
3329.000000	100.002985 
3328.000000	100.002915 
3327.000000	100.003261 
3326.000000	100.003320 
3325.000000	100.002833 
3324.000000	100.002245 
3323.000000	100.002179 
3322.000000	100.002832 
3321.000000	100.003962 
3320.000000	100.005186 
3319.000000	100.006069 
3318.000000	100.006114 
3317.000000	100.005085 
3316.000000	100.003399 
3315.000000	100.001933 
3314.000000	100.001309 
3313.000000	100.001530 
3312.000000	100.002367 
3311.000000	100.003756 
3310.000000	100.005533 
3309.000000	100.006979 
3308.000000	100.007123 
3307.000000	100.005720 
3306.000000	100.003681 
3305.000000	100.002269 
3304.000000	100.001942 
3303.000000	100.002141 
3302.000000	100.002114 
3301.000000	100.001715 
3300.000000	100.001364 
3299.000000	100.001499 
3298.000000	100.002174 
3297.000000	100.002994 
3296.000000	100.003257 
3295.000000	100.002345 
3294.000000	100.000361 
3293.000000	99.998418  
3292.000000	99.997987  
3291.000000	99.999610  
3290.000000	100.002257 
3289.000000	100.004111 
3288.000000	100.004100 
3287.000000	100.002680 
3286.000000	100.001192 
3285.000000	100.000589 
3284.000000	100.000831 
3283.000000	100.001372 
3282.000000	100.001934 
3281.000000	100.002655 
3280.000000	100.003607 
3279.000000	100.004490 
3278.000000	100.004910 
3277.000000	100.004838 
3276.000000	100.004626 
3275.000000	100.004600 
3274.000000	100.004763 
3273.000000	100.004942 
3272.000000	100.005129 
3271.000000	100.005495 
3270.000000	100.005964 
3269.000000	100.005855 
3268.000000	100.004297 
3267.000000	100.001268 
3266.000000	99.998080  
3265.000000	99.996432  
3264.000000	99.996868  
3263.000000	99.998442  
3262.000000	99.999966  
3261.000000	100.001166 
3260.000000	100.002369 
3259.000000	100.003475 
3258.000000	100.003836 
3257.000000	100.003219 
3256.000000	100.002404 
3255.000000	100.002522 
3254.000000	100.003847 
3253.000000	100.005330 
3252.000000	100.005394 
3251.000000	100.003371 
3250.000000	100.000303 
3249.000000	99.998226  
3248.000000	99.998447  
3247.000000	100.000535 
3246.000000	100.002964 
3245.000000	100.004452 
3244.000000	100.004483 
3243.000000	100.003035 
3242.000000	100.000559 
3241.000000	99.998227  
3240.000000	99.997406  
3239.000000	99.998429  
3238.000000	100.000170 
3237.000000	100.001185 
3236.000000	100.001124 
3235.000000	100.000830 
3234.000000	100.001264 
3233.000000	100.002579 
3232.000000	100.004098 
3231.000000	100.004933 
3230.000000	100.004668 
3229.000000	100.003595 
3228.000000	100.002338 
3227.000000	100.001278 
3226.000000	100.000484 
3225.000000	100.000106 
3224.000000	100.000430 
3223.000000	100.001412 
3222.000000	100.002508 
3221.000000	100.003205 
3220.000000	100.003489 
3219.000000	100.003535 
3218.000000	100.003222 
3217.000000	100.002350 
3216.000000	100.001207 
3215.000000	100.000530 
3214.000000	100.000880 
3213.000000	100.002281 
3212.000000	100.004364 
3211.000000	100.006520 
3210.000000	100.007911 
3209.000000	100.007754 
3208.000000	100.005918 
3207.000000	100.003169 
3206.000000	100.000699 
3205.000000	99.999342  
3204.000000	99.999081  
3203.000000	99.999128  
3202.000000	99.998521  
3201.000000	99.996879  
3200.000000	99.994736  
3199.000000	99.993130  
3198.000000	99.992826  
3197.000000	99.993889  
3196.000000	99.995788  
3195.000000	99.997712  
3194.000000	99.998894  
3193.000000	99.998996  
3192.000000	99.998363  
3191.000000	99.997836  
3190.000000	99.998129  
3189.000000	99.999307  
3188.000000	100.000757 
3187.000000	100.001666 
3186.000000	100.001684 
3185.000000	100.001286 
3184.000000	100.001418 
3183.000000	100.002505 
3182.000000	100.003813 
3181.000000	100.004043 
3180.000000	100.002716 
3179.000000	100.000773 
3178.000000	99.999573  
3177.000000	99.999383  
3176.000000	99.999144  
3175.000000	99.997880  
3174.000000	99.996094  
3173.000000	99.995470  
3172.000000	99.997144  
3171.000000	100.000485 
3170.000000	100.003711 
3169.000000	100.005489 
3168.000000	100.005706 
3167.000000	100.004944 
3166.000000	100.003715 
3165.000000	100.002352 
3164.000000	100.001198 
3163.000000	100.000488 
3162.000000	100.000120 
3161.000000	99.999790  
3160.000000	99.999307  
3159.000000	99.998628  
3158.000000	99.997732  
3157.000000	99.996668  
3156.000000	99.995714  
3155.000000	99.995292  
3154.000000	99.995742  
3153.000000	99.997230  
3152.000000	99.999714  
3151.000000	100.002769 
3150.000000	100.005555 
3149.000000	100.007261 
3148.000000	100.007651 
3147.000000	100.007047 
3146.000000	100.005834 
3145.000000	100.004263 
3144.000000	100.002724 
3143.000000	100.001870 
3142.000000	100.002182 
3141.000000	100.003462 
3140.000000	100.004878 
3139.000000	100.005533 
3138.000000	100.005020 
3137.000000	100.003599 
3136.000000	100.002000 
3135.000000	100.001014 
3134.000000	100.001053 
3133.000000	100.001885 
3132.000000	100.002732 
3131.000000	100.002818 
3130.000000	100.002048 
3129.000000	100.001177 
3128.000000	100.001067 
3127.000000	100.001648 
3126.000000	100.001824 
3125.000000	100.000668 
3124.000000	99.998556  
3123.000000	99.996777  
3122.000000	99.996100  
3121.000000	99.996120  
3120.000000	99.996123  
3119.000000	99.996236  
3118.000000	99.997335  
3117.000000	99.999859  
3116.000000	100.002964 
3115.000000	100.004977 
3114.000000	100.004739 
3113.000000	100.002592 
3112.000000	100.000100 
3111.000000	99.998699  
3110.000000	99.998502  
3109.000000	99.998503  
3108.000000	99.997994  
3107.000000	99.997608  
3106.000000	99.998664  
3105.000000	100.001478 
3104.000000	100.004608 
3103.000000	100.006012 
3102.000000	100.004876 
3101.000000	100.002130 
3100.000000	99.999290  
3099.000000	99.997201  
3098.000000	99.996024  
3097.000000	99.996026  
3096.000000	99.997760  
3095.000000	100.001314 
3094.000000	100.005693 
3093.000000	100.009181 
3092.000000	100.010347 
3091.000000	100.008791 
3090.000000	100.005268 
3089.000000	100.001310 
3088.000000	99.998513  
3087.000000	99.997722  
3086.000000	99.998629  
3085.000000	100.000122 
3084.000000	100.001116 
3083.000000	100.001190 
3082.000000	100.000622 
3081.000000	99.999961  
3080.000000	99.999586  
3079.000000	99.999608  
3078.000000	100.000040 
3077.000000	100.000885 
3076.000000	100.002008 
3075.000000	100.003084 
3074.000000	100.003839 
3073.000000	100.004220 
3072.000000	100.004176 
3071.000000	100.003436 
3070.000000	100.001850 
3069.000000	99.999903  
3068.000000	99.998475  
3067.000000	99.998013  
3066.000000	99.998238  
3065.000000	99.998722  
3064.000000	99.999330  
3063.000000	99.999929  
3062.000000	100.000124 
3061.000000	99.999676  
3060.000000	99.998888  
3059.000000	99.998252  
3058.000000	99.997945  
3057.000000	99.998002  
3056.000000	99.998673  
3055.000000	100.000084 
3054.000000	100.001680 
3053.000000	100.002595 
3052.000000	100.002604 
3051.000000	100.002266 
3050.000000	100.002043 
3049.000000	100.001731 
3048.000000	100.000981 
3047.000000	100.000042 
3046.000000	99.999633  
3045.000000	100.000138 
3044.000000	100.001062 
3043.000000	100.001332 
3042.000000	100.000265 
3041.000000	99.998405  
3040.000000	99.997239  
3039.000000	99.997698  
3038.000000	99.998973  
3037.000000	99.999302  
3036.000000	99.998121  
3035.000000	99.997005  
3034.000000	99.998065  
3033.000000	100.001570 
3032.000000	100.005519 
3031.000000	100.007562 
3030.000000	100.007085 
3029.000000	100.005438 
3028.000000	100.004451 
3027.000000	100.004859 
3026.000000	100.005951 
3025.000000	100.006424 
3024.000000	100.005473 
3023.000000	100.003175 
3022.000000	100.000117 
3021.000000	99.996905  
3020.000000	99.994069  
3019.000000	99.992204  
3018.000000	99.991873  
3017.000000	99.993185  
3016.000000	99.995531  
3015.000000	99.997914  
3014.000000	99.999668  
3013.000000	100.000833 
3012.000000	100.001805 
3011.000000	100.002718 
3010.000000	100.003285 
3009.000000	100.003190 
3008.000000	100.002401 
3007.000000	100.001035 
3006.000000	99.999108  
3005.000000	99.996627  
3004.000000	99.993959  
3003.000000	99.991987  
3002.000000	99.991761  
3001.000000	99.993781  
3000.000000	99.997415  
2999.000000	100.001111 
2998.000000	100.003475 
2997.000000	100.004275 
2996.000000	100.004347 
2995.000000	100.004549 
2994.000000	100.005066 
2993.000000	100.005590 
2992.000000	100.005695 
2991.000000	100.004867 
2990.000000	100.002701 
2989.000000	99.999524  
2988.000000	99.996564  
2987.000000	99.995060  
2986.000000	99.995306  
2985.000000	99.996790  
2984.000000	99.998990  
2983.000000	100.001566 
2982.000000	100.004000 
2981.000000	100.005703 
2980.000000	100.006571 
2979.000000	100.006969 
2978.000000	100.007004 
2977.000000	100.006208 
2976.000000	100.004148 
2975.000000	100.001137 
2974.000000	99.998176  
2973.000000	99.996277  
2972.000000	99.995847  
2971.000000	99.996531  
2970.000000	99.997591  
2969.000000	99.998540  
2968.000000	99.999370  
2967.000000	100.000144 
2966.000000	100.000660 
2965.000000	100.000790 
2964.000000	100.000865 
2963.000000	100.001284 
2962.000000	100.001881 
2961.000000	100.002209 
2960.000000	100.002325 
2959.000000	100.002728 
2958.000000	100.003519 
2957.000000	100.004269 
2956.000000	100.004833 
2955.000000	100.005598 
2954.000000	100.006572 
2953.000000	100.006863 
2952.000000	100.005625 
2951.000000	100.003184 
2950.000000	100.000723 
2949.000000	99.999026  
2948.000000	99.997932  
2947.000000	99.996894  
2946.000000	99.995650  
2945.000000	99.994387  
2944.000000	99.993518  
2943.000000	99.993358  
2942.000000	99.993897  
2941.000000	99.994895  
2940.000000	99.996200  
2939.000000	99.997795  
2938.000000	99.999521  
2937.000000	100.001033 
2936.000000	100.002134 
2935.000000	100.002876 
2934.000000	100.003319 
2933.000000	100.003576 
2932.000000	100.004114 
2931.000000	100.005367 
2930.000000	100.006721 
2929.000000	100.006572 
2928.000000	100.004064 
2927.000000	100.000417 
2926.000000	99.997822  
2925.000000	99.997221  
2924.000000	99.997774  
2923.000000	99.998326  
2922.000000	99.998582  
2921.000000	99.998823  
2920.000000	99.999219  
2919.000000	99.999742  
2918.000000	100.000290 
2917.000000	100.000646 
2916.000000	100.000668 
2915.000000	100.000690 
2914.000000	100.001321 
2913.000000	100.002556 
2912.000000	100.003366 
2911.000000	100.002602 
2910.000000	100.000319 
2909.000000	99.998023  
2908.000000	99.997510  
2907.000000	99.999408  
2906.000000	100.002637 
2905.000000	100.005264 
2904.000000	100.006063 
2903.000000	100.005358 
2902.000000	100.004431 
2901.000000	100.004152 
2900.000000	100.004396 
2899.000000	100.004605 
2898.000000	100.004513 
2897.000000	100.004244 
2896.000000	100.003986 
2895.000000	100.003816 
2894.000000	100.003738 
2893.000000	100.003756 
2892.000000	100.003917 
2891.000000	100.004269 
2890.000000	100.004654 
2889.000000	100.004635 
2888.000000	100.003912 
2887.000000	100.002810 
2886.000000	100.002026 
2885.000000	100.001836 
2884.000000	100.001882 
2883.000000	100.001910 
2882.000000	100.002274 
2881.000000	100.003336 
2880.000000	100.004650 
2879.000000	100.005250 
2878.000000	100.004751 
2877.000000	100.003775 
2876.000000	100.003189 
2875.000000	100.003137 
2874.000000	100.002909 
2873.000000	100.001640 
2872.000000	99.999213  
2871.000000	99.996723  
2870.000000	99.995947  
2869.000000	99.997936  
2868.000000	100.001844 
2867.000000	100.005313 
2866.000000	100.006344 
2865.000000	100.004904 
2864.000000	100.002787 
2863.000000	100.001981 
2862.000000	100.003100 
2861.000000	100.005124 
2860.000000	100.006471 
2859.000000	100.006394 
2858.000000	100.005472 
2857.000000	100.004783 
2856.000000	100.004659 
2855.000000	100.004420 
2854.000000	100.003343 
2853.000000	100.001715 
2852.000000	100.000726 
2851.000000	100.001349 
2850.000000	100.003364 
2849.000000	100.005459 
2848.000000	100.006315 
2847.000000	100.005676 
2846.000000	100.004418 
2845.000000	100.003525 
2844.000000	100.003092 
2843.000000	100.002511 
2842.000000	100.001524 
2841.000000	100.000709 
2840.000000	100.000743 
2839.000000	100.001545 
2838.000000	100.002442 
2837.000000	100.002973 
2836.000000	100.003138 
2835.000000	100.002956 
2834.000000	100.002200 
2833.000000	100.000712 
2832.000000	99.998795  
2831.000000	99.997206  
2830.000000	99.996831  
2829.000000	99.998182  
2828.000000	100.000856 
2827.000000	100.003502 
2826.000000	100.004710 
2825.000000	100.004150 
2824.000000	100.002662 
2823.000000	100.001227 
2822.000000	100.000146 
2821.000000	99.999330  
2820.000000	99.998947  
2819.000000	99.999343  
2818.000000	100.000457 
2817.000000	100.001641 
2816.000000	100.002126 
2815.000000	100.001560 
2814.000000	100.000187 
2813.000000	99.998631  
2812.000000	99.997429  
2811.000000	99.996646  
2810.000000	99.996012  
2809.000000	99.995467  
2808.000000	99.995308  
2807.000000	99.995653  
2806.000000	99.996101  
2805.000000	99.996323  
2804.000000	99.996739  
2803.000000	99.998046  
2802.000000	100.000073 
2801.000000	100.001649 
2800.000000	100.001801 
2799.000000	100.000689 
2798.000000	99.999201  
2797.000000	99.998130  
2796.000000	99.998086  
2795.000000	99.999661  
2794.000000	100.002826 
2793.000000	100.006201 
2792.000000	100.007717 
2791.000000	100.006478 
2790.000000	100.003668 
2789.000000	100.001320 
2788.000000	100.000440 
2787.000000	100.000599 
2786.000000	100.000992 
2785.000000	100.001284 
2784.000000	100.001405 
2783.000000	100.001158 
2782.000000	100.000403 
2781.000000	99.999397  
2780.000000	99.998614  
2779.000000	99.998317  
2778.000000	99.998475  
2777.000000	99.998996  
2776.000000	99.999819  
2775.000000	100.000780 
2774.000000	100.001559 
2773.000000	100.001788 
2772.000000	100.001244 
2771.000000	100.000103 
2770.000000	99.999064  
2769.000000	99.998910  
2768.000000	99.999683  
2767.000000	100.000519 
2766.000000	100.000634 
2765.000000	100.000291 
2764.000000	100.000344 
2763.000000	100.000975 
2762.000000	100.001441 
2761.000000	100.001183 
2760.000000	100.000628 
2759.000000	100.000591 
2758.000000	100.001264 
2757.000000	100.002130 
2756.000000	100.002618 
2755.000000	100.002534 
2754.000000	100.002068 
2753.000000	100.001688 
2752.000000	100.001910 
2751.000000	100.002847 
2750.000000	100.004009 
2749.000000	100.004678 
2748.000000	100.004428 
2747.000000	100.003293 
2746.000000	100.001738 
2745.000000	100.000586 
2744.000000	100.000523 
2743.000000	100.001306 
2742.000000	100.001804 
2741.000000	100.001301 
2740.000000	100.000527 
2739.000000	100.000796 
2738.000000	100.002232 
2737.000000	100.003478 
2736.000000	100.003334 
2735.000000	100.002109 
2734.000000	100.001071 
2733.000000	100.000917 
2732.000000	100.001198 
2731.000000	100.001054 
2730.000000	100.000216 
2729.000000	99.999262  
2728.000000	99.999030  
2727.000000	99.999710  
2726.000000	100.000516 
2725.000000	100.000459 
2724.000000	99.999535  
2723.000000	99.998909  
2722.000000	99.999669  
2721.000000	100.001532 
2720.000000	100.003072 
2719.000000	100.003212 
2718.000000	100.002293 
2717.000000	100.001627 
2716.000000	100.002252 
2715.000000	100.004159 
2714.000000	100.006450 
2713.000000	100.007921 
2712.000000	100.007606 
2711.000000	100.005257 
2710.000000	100.001664 
2709.000000	99.998380  
2708.000000	99.996759  
2707.000000	99.997056  
2706.000000	99.998457  
2705.000000	99.999852  
2704.000000	100.000509 
2703.000000	100.000275 
2702.000000	99.999638  
2701.000000	99.999592  
2700.000000	100.000874 
2699.000000	100.003002 
2698.000000	100.004486 
2697.000000	100.004376 
2696.000000	100.003328 
2695.000000	100.002660 
2694.000000	100.002627 
2693.000000	100.002315 
2692.000000	100.001260 
2691.000000	100.000415 
2690.000000	100.001065 
2689.000000	100.003164 
2688.000000	100.005257 
2687.000000	100.005939 
2686.000000	100.004958 
2685.000000	100.002918 
2684.000000	100.000385 
2683.000000	99.997693  
2682.000000	99.995456  
2681.000000	99.994705  
2680.000000	99.996073  
2679.000000	99.998867  
2678.000000	100.001366 
2677.000000	100.002262 
2676.000000	100.001713 
2675.000000	100.000868 
2674.000000	100.000559 
2673.000000	100.000709 
2672.000000	100.000797 
2671.000000	100.000499 
2670.000000	99.999839  
2669.000000	99.999123  
2668.000000	99.998922  
2667.000000	99.999809  
2666.000000	100.001763 
2665.000000	100.003885 
2664.000000	100.005001 
2663.000000	100.004675 
2662.000000	100.003558 
2661.000000	100.002675 
2660.000000	100.002509 
2659.000000	100.002847 
2658.000000	100.003362 
2657.000000	100.003980 
2656.000000	100.004600 
2655.000000	100.004822 
2654.000000	100.004323 
2653.000000	100.003353 
2652.000000	100.002402 
2651.000000	100.001443 
2650.000000	100.000023 
2649.000000	99.998288  
2648.000000	99.997371  
2647.000000	99.998291  
2646.000000	100.000736 
2645.000000	100.003329 
2644.000000	100.004940 
2643.000000	100.005322 
2642.000000	100.004689 
2641.000000	100.003259 
2640.000000	100.001388 
2639.000000	99.999699  
2638.000000	99.998760  
2637.000000	99.998632  
2636.000000	99.998817  
2635.000000	99.998607  
2634.000000	99.997630  
2633.000000	99.996274  
2632.000000	99.995485  
2631.000000	99.995883  
2630.000000	99.997053  
2629.000000	99.997917  
2628.000000	99.997833  
2627.000000	99.997138  
2626.000000	99.996651  
2625.000000	99.996894  
2624.000000	99.997854  
2623.000000	99.999224  
2622.000000	100.000670 
2621.000000	100.001915 
2620.000000	100.002702 
2619.000000	100.002780 
2618.000000	100.002065 
2617.000000	100.000893 
2616.000000	99.999949  
2615.000000	99.999743  
2614.000000	100.000192 
2613.000000	100.000789 
2612.000000	100.001118 
2611.000000	100.001094 
2610.000000	100.000910 
2609.000000	100.000924 
2608.000000	100.001410 
2607.000000	100.002211 
2606.000000	100.002771 
2605.000000	100.002743 
2604.000000	100.002443 
2603.000000	100.002474 
2602.000000	100.003073 
2601.000000	100.004016 
2600.000000	100.004923 
2599.000000	100.005351 
2598.000000	100.004906 
2597.000000	100.003701 
2596.000000	100.002507 
2595.000000	100.001952 
2594.000000	100.001716 
2593.000000	100.001001 
2592.000000	99.999658  
2591.000000	99.998310  
2590.000000	99.997516  
2589.000000	99.997409  
2588.000000	99.998020  
2587.000000	99.999158  
2586.000000	99.999941  
2585.000000	99.999377  
2584.000000	99.997765  
2583.000000	99.996744  
2582.000000	99.997520  
2581.000000	99.999591  
2580.000000	100.001645 
2579.000000	100.003008 
2578.000000	100.003689 
2577.000000	100.003672 
2576.000000	100.003035 
2575.000000	100.002400 
2574.000000	100.002363 
2573.000000	100.002501 
2572.000000	100.001704 
2571.000000	99.999610  
2570.000000	99.997180  
2569.000000	99.995687  
2568.000000	99.995503  
2567.000000	99.995972  
2566.000000	99.996160  
2565.000000	99.995653  
2564.000000	99.994922  
2563.000000	99.994992  
2562.000000	99.996508  
2561.000000	99.999001  
2560.000000	100.001226 
2559.000000	100.002256 
2558.000000	100.002141 
2557.000000	100.001597 
2556.000000	100.001280 
2555.000000	100.001329 
2554.000000	100.001378 
2553.000000	100.000988 
2552.000000	100.000138 
2551.000000	99.999215  
2550.000000	99.998492  
2549.000000	99.997911  
2548.000000	99.997613  
2547.000000	99.998267  
2546.000000	100.000308 
2545.000000	100.002979 
2544.000000	100.004793 
2543.000000	100.005059 
2542.000000	100.004438 
2541.000000	100.003818 
2540.000000	100.003218 
2539.000000	100.002139 
2538.000000	100.000590 
2537.000000	99.999226  
2536.000000	99.998663  
2535.000000	99.999024  
2534.000000	100.000019 
2533.000000	100.001114 
2532.000000	100.001726 
2531.000000	100.001674 
2530.000000	100.001441 
2529.000000	100.001639 
2528.000000	100.002172 
2527.000000	100.002279 
2526.000000	100.001475 
2525.000000	100.000146 
2524.000000	99.999114  
2523.000000	99.998931  
2522.000000	99.999719  
2521.000000	100.001275 
2520.000000	100.002998 
2519.000000	100.004029 
2518.000000	100.003924 
2517.000000	100.003096 
2516.000000	100.002254 
2515.000000	100.001598 
2514.000000	100.000991 
2513.000000	100.000716 
2512.000000	100.001341 
2511.000000	100.002699 
2510.000000	100.003727 
2509.000000	100.003727 
2508.000000	100.003316 
2507.000000	100.003601 
2506.000000	100.004749 
2505.000000	100.005941 
2504.000000	100.006560 
2503.000000	100.006780 
2502.000000	100.006965 
2501.000000	100.007035 
2500.000000	100.006622 
2499.000000	100.005513 
2498.000000	100.003827 
2497.000000	100.002062 
2496.000000	100.001076 
2495.000000	100.001603 
2494.000000	100.003484 
2493.000000	100.005540 
2492.000000	100.006475 
2491.000000	100.005883 
2490.000000	100.004371 
2489.000000	100.002871 
2488.000000	100.001973 
2487.000000	100.001700 
2486.000000	100.001656 
2485.000000	100.001452 
2484.000000	100.001135 
2483.000000	100.001166 
2482.000000	100.001859 
2481.000000	100.002861 
2480.000000	100.003376 
2479.000000	100.002981 
2478.000000	100.002125 
2477.000000	100.001653 
2476.000000	100.001809 
2475.000000	100.001922 
2474.000000	100.001276 
2473.000000	100.000166 
2472.000000	99.999725  
2471.000000	100.000632 
2470.000000	100.002321 
2469.000000	100.003666 
2468.000000	100.004085 
2467.000000	100.003652 
2466.000000	100.002481 
2465.000000	100.000646 
2464.000000	99.998668  
2463.000000	99.997474  
2462.000000	99.997578  
2461.000000	99.998557  
2460.000000	99.999523  
2459.000000	99.999943  
2458.000000	99.999921  
2457.000000	99.999912  
2456.000000	100.000329 
2455.000000	100.001290 
2454.000000	100.002597 
2453.000000	100.003959 
2452.000000	100.005178 
2451.000000	100.006041 
2450.000000	100.006192 
2449.000000	100.005383 
2448.000000	100.003784 
2447.000000	100.001850 
2446.000000	99.999962  
2445.000000	99.998432  
2444.000000	99.997661  
2443.000000	99.997855  
2442.000000	99.998634  
2441.000000	99.999381  
2440.000000	99.999988  
2439.000000	100.000749 
2438.000000	100.001454 
2437.000000	100.001213 
2436.000000	99.999566  
2435.000000	99.997377  
2434.000000	99.996208  
2433.000000	99.996942  
2432.000000	99.999220  
2431.000000	100.001909 
2430.000000	100.003840 
2429.000000	100.004351 
2428.000000	100.003563 
2427.000000	100.002179 
2426.000000	100.000859 
2425.000000	99.999889  
2424.000000	99.999449  
2423.000000	99.999833  
2422.000000	100.001085 
2421.000000	100.002596 
2420.000000	100.003428 
2419.000000	100.003025 
2418.000000	100.001497 
2417.000000	99.999388  
2416.000000	99.997418  
2415.000000	99.996320  
2414.000000	99.996549  
2413.000000	99.997952  
2412.000000	99.999734  
2411.000000	100.000861 
2410.000000	100.000701 
2409.000000	99.999575  
2408.000000	99.998638  
2407.000000	99.998816  
2406.000000	99.999719  
2405.000000	99.999944  
2404.000000	99.998720  
2403.000000	99.996929  
2402.000000	99.996183  
2401.000000	99.997092  
2400.000000	99.998794  
2399.000000	100.000018 
2398.000000	100.000164 
2397.000000	99.999390  
2396.000000	99.998123  
2395.000000	99.996764  
2394.000000	99.995717  
2393.000000	99.995472  
2392.000000	99.996496  
2391.000000	99.998868  
2390.000000	100.001891 
2389.000000	100.004226 
2388.000000	100.004694 
2387.000000	100.003133 
2386.000000	100.000477 
2385.000000	99.998031  
2384.000000	99.996637  
2383.000000	99.996318  
2382.000000	99.996447  
2381.000000	99.996142  
2380.000000	99.994630  
2379.000000	99.991560  
2378.000000	99.987404  
2377.000000	99.983647  
2376.000000	99.982046  
2375.000000	99.982960  
2374.000000	99.984584  
2373.000000	99.984836  
2372.000000	99.984160  
2371.000000	99.985126  
2370.000000	99.988513  
2369.000000	99.991431  
2368.000000	99.991153  
2367.000000	99.989499  
2366.000000	99.990622  
2365.000000	99.994816  
2364.000000	99.997627  
2363.000000	99.995720  
2362.000000	99.990948  
2361.000000	99.987697  
2360.000000	99.988457  
2359.000000	99.992653  
2358.000000	99.997532  
2357.000000	99.999929  
2356.000000	99.998585  
2355.000000	99.994850  
2354.000000	99.990205  
2353.000000	99.985024  
2352.000000	99.980711  
2351.000000	99.979779  
2350.000000	99.982841  
2349.000000	99.987667  
2348.000000	99.991580  
2347.000000	99.993407  
2346.000000	99.993215  
2345.000000	99.990999  
2344.000000	99.986876  
2343.000000	99.983108  
2342.000000	99.982965  
2341.000000	99.987323  
2340.000000	99.993762  
2339.000000	99.998544  
2338.000000	99.998997  
2337.000000	99.994278  
2336.000000	99.985759  
2335.000000	99.976620  
2334.000000	99.970308  
2333.000000	99.968732  
2332.000000	99.972008  
2331.000000	99.978748  
2330.000000	99.986671  
2329.000000	99.993203  
2328.000000	99.996815  
2327.000000	99.997909  
2326.000000	99.998306  
2325.000000	99.999966  
2324.000000	100.003340 
2323.000000	100.006823 
2322.000000	100.007891 
2321.000000	100.005675 
2320.000000	100.002404 
2319.000000	100.001364 
2318.000000	100.003584 
2317.000000	100.006749 
2316.000000	100.007824 
2315.000000	100.005938 
2314.000000	100.002687 
2313.000000	99.999922  
2312.000000	99.998152  
2311.000000	99.997065  
2310.000000	99.996779  
2309.000000	99.997809  
2308.000000	100.000018 
2307.000000	100.002306 
2306.000000	100.003464 
2305.000000	100.003164 
2304.000000	100.002030 
2303.000000	100.000995 
2302.000000	100.000719 
2301.000000	100.001313 
2300.000000	100.002342 
2299.000000	100.003085 
2298.000000	100.003127 
2297.000000	100.002755 
2296.000000	100.002703 
2295.000000	100.003427 
2294.000000	100.004708 
2293.000000	100.006019 
2292.000000	100.006961 
2291.000000	100.007308 
2290.000000	100.006852 
2289.000000	100.005646 
2288.000000	100.004203 
2287.000000	100.003118 
2286.000000	100.002488 
2285.000000	100.002045 
2284.000000	100.001751 
2283.000000	100.001807 
2282.000000	100.002029 
2281.000000	100.001773 
2280.000000	100.000825 
2279.000000	99.999991  
2278.000000	100.000349 
2277.000000	100.001987 
2276.000000	100.003850 
2275.000000	100.004789 
2274.000000	100.004512 
2273.000000	100.003573 
2272.000000	100.002745 
2271.000000	100.002423 
2270.000000	100.002450 
2269.000000	100.002409 
2268.000000	100.002062 
2267.000000	100.001444 
2266.000000	100.000645 
2265.000000	99.999760  
2264.000000	99.999107  
2263.000000	99.999118  
2262.000000	99.999810  
2261.000000	100.000599 
2260.000000	100.000840 
2259.000000	100.000369 
2258.000000	99.999398  
2257.000000	99.998248  
2256.000000	99.997426  
2255.000000	99.997539  
2254.000000	99.998668  
2253.000000	99.999984  
2252.000000	100.000466 
2251.000000	99.999990  
2250.000000	99.999402  
2249.000000	99.999585  
2248.000000	100.000658 
2247.000000	100.001946 
2246.000000	100.002474 
2245.000000	100.001764 
2244.000000	100.000521 
2243.000000	100.000283 
2242.000000	100.001822 
2241.000000	100.003964 
2240.000000	100.004612 
2239.000000	100.003066 
2238.000000	100.000850 
2237.000000	100.000028 
2236.000000	100.001065 
2235.000000	100.002563 
2234.000000	100.002795 
2233.000000	100.001249 
2232.000000	99.998895  
2231.000000	99.997195  
2230.000000	99.996843  
2229.000000	99.997345  
2228.000000	99.997808  
2227.000000	99.998044  
2226.000000	99.998704  
2225.000000	100.000382 
2224.000000	100.002832 
2223.000000	100.005079 
2222.000000	100.006086 
2221.000000	100.005358 
2220.000000	100.003289 
2219.000000	100.001053 
2218.000000	99.999908  
2217.000000	100.000340 
2216.000000	100.001853 
2215.000000	100.003543 
2214.000000	100.004705 
2213.000000	100.004964 
2212.000000	100.004158 
2211.000000	100.002312 
2210.000000	99.999667  
2209.000000	99.996716  
2208.000000	99.994291  
2207.000000	99.993436  
2206.000000	99.994739  
2205.000000	99.997625  
2204.000000	100.000566 
2203.000000	100.002262 
2202.000000	100.002556 
2201.000000	100.002162 
2200.000000	100.001721 
2199.000000	100.001269 
2198.000000	100.000515 
2197.000000	99.999422  
2196.000000	99.998478  
2195.000000	99.998324  
2194.000000	99.999084  
2193.000000	100.000140 
2192.000000	100.000738 
2191.000000	100.000733 
2190.000000	100.000518 
2189.000000	100.000335 
2188.000000	100.000027 
2187.000000	99.999562  
2186.000000	99.999369  
2185.000000	99.999850  
2184.000000	100.000752 
2183.000000	100.001355 
2182.000000	100.001298 
2181.000000	100.001022 
2180.000000	100.001278 
2179.000000	100.002215 
2178.000000	100.002991 
2177.000000	100.002455 
2176.000000	100.000389 
2175.000000	99.997994  
2174.000000	99.996909  
2173.000000	99.997679  
2172.000000	99.999357  
2171.000000	100.000601 
2170.000000	100.000912 
2169.000000	100.000699 
2168.000000	100.000481 
2167.000000	100.000319 
2166.000000	99.999963  
2165.000000	99.999306  
2164.000000	99.998587  
2163.000000	99.998190  
2162.000000	99.998241  
2161.000000	99.998448  
2160.000000	99.998435  
2159.000000	99.998158  
2158.000000	99.997843  
2157.000000	99.997510  
2156.000000	99.996839  
2155.000000	99.995633  
2154.000000	99.994254  
2153.000000	99.993405  
2152.000000	99.993491  
2151.000000	99.994248  
2150.000000	99.995021  
2149.000000	99.995467  
2148.000000	99.996008  
2147.000000	99.997397  
2146.000000	99.999640  
2145.000000	100.001575 
2144.000000	100.001973 
2143.000000	100.001023 
2142.000000	100.000217 
2141.000000	100.000607 
2140.000000	100.001618 
2139.000000	100.001889 
2138.000000	100.000923 
2137.000000	99.999443  
2136.000000	99.998372  
2135.000000	99.997947  
2134.000000	99.997866  
2133.000000	99.997865  
2132.000000	99.997977  
2131.000000	99.998417  
2130.000000	99.999340  
2129.000000	100.000626 
2128.000000	100.001858 
2127.000000	100.002535 
2126.000000	100.002270 
2125.000000	100.000871 
2124.000000	99.998519  
2123.000000	99.996034  
2122.000000	99.994621  
2121.000000	99.994848  
2120.000000	99.995922  
2119.000000	99.996420  
2118.000000	99.995868  
2117.000000	99.995224  
2116.000000	99.995612  
2115.000000	99.996996  
2114.000000	99.998465  
2113.000000	99.999508  
2112.000000	100.000415 
2111.000000	100.001401 
2110.000000	100.001978 
2109.000000	100.001643 
2108.000000	100.000867 
2107.000000	100.000750 
2106.000000	100.001640 
2105.000000	100.002569 
2104.000000	100.002363 
2103.000000	100.000986 
2102.000000	99.999411  
2101.000000	99.998421  
2100.000000	99.998052  
2099.000000	99.998170  
2098.000000	99.998938  
2097.000000	100.000367 
2096.000000	100.001879 
2095.000000	100.002803 
2094.000000	100.003108 
2093.000000	100.003187 
2092.000000	100.003033 
2091.000000	100.002200 
2090.000000	100.000677 
2089.000000	99.999238  
2088.000000	99.998557  
2087.000000	99.998296  
2086.000000	99.997545  
2085.000000	99.996092  
2084.000000	99.994811  
2083.000000	99.994659  
2082.000000	99.995590  
2081.000000	99.996683  
2080.000000	99.997239  
2079.000000	99.997458  
2078.000000	99.997979  
2077.000000	99.998938  
2076.000000	99.999690  
2075.000000	99.999434  
2074.000000	99.997960  
2073.000000	99.995747  
2072.000000	99.993558  
2071.000000	99.992128  
2070.000000	99.992041  
2069.000000	99.993470  
2068.000000	99.995816  
2067.000000	99.997834  
2066.000000	99.998493  
2065.000000	99.997839  
2064.000000	99.996932  
2063.000000	99.996853  
2062.000000	99.997766  
2061.000000	99.998885  
2060.000000	99.999242  
2059.000000	99.998531  
2058.000000	99.997335  
2057.000000	99.996588  
2056.000000	99.996753  
2055.000000	99.997479  
2054.000000	99.998063  
2053.000000	99.998195  
2052.000000	99.998157  
2051.000000	99.998322  
2050.000000	99.998656  
2049.000000	99.998828  
2048.000000	99.998730  
2047.000000	99.998709  
2046.000000	99.999214  
2045.000000	100.000269 
2044.000000	100.001393 
2043.000000	100.002090 
2042.000000	100.002341 
2041.000000	100.002487 
2040.000000	100.002653 
2039.000000	100.002562 
2038.000000	100.002070 
2037.000000	100.001554 
2036.000000	100.001353 
2035.000000	100.000983 
2034.000000	99.999537  
2033.000000	99.997056  
2032.000000	99.994972  
2031.000000	99.994783  
2030.000000	99.996575  
2029.000000	99.999162  
2028.000000	100.001406 
2027.000000	100.002866 
2026.000000	100.003324 
2025.000000	100.002442 
2024.000000	100.000204 
2023.000000	99.997334  
2022.000000	99.994936  
2021.000000	99.993792  
2020.000000	99.994031  
2019.000000	99.995178  
2018.000000	99.996392  
2017.000000	99.996948  
2016.000000	99.996772  
2015.000000	99.996443  
2014.000000	99.996549  
2013.000000	99.997156  
2012.000000	99.997919  
2011.000000	99.998481  
2010.000000	99.998653  
2009.000000	99.998424  
2008.000000	99.998010  
2007.000000	99.997796  
2006.000000	99.998023  
2005.000000	99.998573  
2004.000000	99.999136  
2003.000000	99.999510  
2002.000000	99.999616  
2001.000000	99.999355  
2000.000000	99.998690  
1999.000000	99.997806  
1998.000000	99.997113  
1997.000000	99.996990  
1996.000000	99.997545  
1995.000000	99.998533  
1994.000000	99.999434  
1993.000000	99.999700  
1992.000000	99.999095  
1991.000000	99.997878  
1990.000000	99.996666  
1989.000000	99.996105  
1988.000000	99.996480  
1987.000000	99.997442  
1986.000000	99.998154  
1985.000000	99.998041  
1984.000000	99.997392  
1983.000000	99.997025  
1982.000000	99.997347  
1981.000000	99.998040  
1980.000000	99.998679  
1979.000000	99.999225  
1978.000000	99.999805  
1977.000000	100.000301 
1976.000000	100.000457 
1975.000000	100.000134 
1974.000000	99.999275  
1973.000000	99.997899  
1972.000000	99.996358  
1971.000000	99.995343  
1970.000000	99.995297  
1969.000000	99.995925  
1968.000000	99.996485  
1967.000000	99.996457  
1966.000000	99.995781  
1965.000000	99.994659  
1964.000000	99.993435  
1963.000000	99.992546  
1962.000000	99.992294  
1961.000000	99.992695  
1960.000000	99.993680  
1959.000000	99.995246  
1958.000000	99.997148  
1957.000000	99.998673  
1956.000000	99.999172  
1955.000000	99.998791  
1954.000000	99.998448  
1953.000000	99.999003  
1952.000000	100.000416 
1951.000000	100.001748 
1950.000000	100.001943 
1949.000000	100.000817 
1948.000000	99.999314  
1947.000000	99.998603  
1946.000000	99.998964  
1945.000000	99.999808  
1944.000000	100.000703 
1943.000000	100.001811 
1942.000000	100.003081 
1941.000000	100.003672 
1940.000000	100.002871 
1939.000000	100.001144 
1938.000000	99.999624  
1937.000000	99.998811  
1936.000000	99.998398  
1935.000000	99.998222  
1934.000000	99.998636  
1933.000000	99.999704  
1932.000000	100.000704 
1931.000000	100.000847 
1930.000000	99.999949  
1929.000000	99.998312  
1928.000000	99.996301  
1927.000000	99.994435  
1926.000000	99.993505  
1925.000000	99.994014  
1924.000000	99.995717  
1923.000000	99.997884  
1922.000000	99.999944  
1921.000000	100.001724 
1920.000000	100.003176 
1919.000000	100.004222 
1918.000000	100.004755 
1917.000000	100.004630 
1916.000000	100.003808 
1915.000000	100.002612 
1914.000000	100.001701 
1913.000000	100.001555 
1912.000000	100.002027 
1911.000000	100.002538 
1910.000000	100.002559 
1909.000000	100.001922 
1908.000000	100.000733 
1907.000000	99.999264  
1906.000000	99.997910  
1905.000000	99.997001  
1904.000000	99.996730  
1903.000000	99.997086  
1902.000000	99.997701  
1901.000000	99.997979  
1900.000000	99.997639  
1899.000000	99.997217  
1898.000000	99.997624  
1897.000000	99.998938  
1896.000000	100.000050 
1895.000000	99.999752  
1894.000000	99.998000  
1893.000000	99.995828  
1892.000000	99.994293  
1891.000000	99.993863  
1890.000000	99.994505  
1889.000000	99.995786  
1888.000000	99.996940  
1887.000000	99.997318  
1886.000000	99.996969  
1885.000000	99.996639  
1884.000000	99.997153  
1883.000000	99.998727  
1882.000000	100.000722 
1881.000000	100.002144 
1880.000000	100.002451 
1879.000000	100.001946 
1878.000000	100.001368 
1877.000000	100.001142 
1876.000000	100.001227 
1875.000000	100.001555 
1874.000000	100.002166 
1873.000000	100.002919 
1872.000000	100.003531 
1871.000000	100.003941 
1870.000000	100.004201 
1869.000000	100.003901 
1868.000000	100.002344 
1867.000000	99.999771  
1866.000000	99.997702  
1865.000000	99.997489  
1864.000000	99.998881  
1863.000000	100.000355 
1862.000000	100.000643 
1861.000000	99.999633  
1860.000000	99.997987  
1859.000000	99.996415  
1858.000000	99.995365  
1857.000000	99.994959  
1856.000000	99.994974  
1855.000000	99.995183  
1854.000000	99.995638  
1853.000000	99.996556  
1852.000000	99.997898  
1851.000000	99.999169  
1850.000000	99.999825  
1849.000000	99.999588  
1848.000000	99.998642  
1847.000000	99.997593  
1846.000000	99.997010  
1845.000000	99.996880  
1844.000000	99.996627  
1843.000000	99.995957  
1842.000000	99.995438  
1841.000000	99.995970  
1840.000000	99.997690  
1839.000000	99.999728  
1838.000000	100.001031 
1837.000000	100.001201 
1836.000000	100.000602 
1835.000000	99.999864  
1834.000000	99.999456  
1833.000000	99.999574  
1832.000000	99.999998  
1831.000000	100.000102 
1830.000000	99.999420  
1829.000000	99.998201  
1828.000000	99.997218  
1827.000000	99.997026  
1826.000000	99.997609  
1825.000000	99.998426  
1824.000000	99.998785  
1823.000000	99.998477  
1822.000000	99.997945  
1821.000000	99.997767  
1820.000000	99.998000  
1819.000000	99.998290  
1818.000000	99.998474  
1817.000000	99.998691  
1816.000000	99.999073  
1815.000000	99.999518  
1814.000000	99.999881  
1813.000000	99.999995  
1812.000000	99.999482  
1811.000000	99.998282  
1810.000000	99.997243  
1809.000000	99.997438  
1808.000000	99.998682  
1807.000000	99.999502  
1806.000000	99.999015  
1805.000000	99.998055  
1804.000000	99.998112  
1803.000000	99.999477  
1802.000000	100.001086 
1801.000000	100.001967 
1800.000000	100.002088 
1799.000000	100.001937 
1798.000000	100.001702 
1797.000000	100.001184 
1796.000000	100.000284 
1795.000000	99.999296  
1794.000000	99.998741  
1793.000000	99.998795  
1792.000000	99.998754  
1791.000000	99.997803  
1790.000000	99.996491  
1789.000000	99.996412  
1788.000000	99.998203  
1787.000000	100.000588 
1786.000000	100.001775 
1785.000000	100.001491 
1784.000000	100.001164 
1783.000000	100.001710 
1782.000000	100.002297 
1781.000000	100.001607 
1780.000000	99.999373  
1779.000000	99.996732  
1778.000000	99.994971  
1777.000000	99.994614  
1776.000000	99.995464  
1775.000000	99.996978  
1774.000000	99.998756  
1773.000000	100.000867 
1772.000000	100.003391 
1771.000000	100.005527 
1770.000000	100.006169 
1769.000000	100.005158 
1768.000000	100.003309 
1767.000000	100.001438 
1766.000000	99.999802  
1765.000000	99.998426  
1764.000000	99.997417  
1763.000000	99.996646  
1762.000000	99.995870  
1761.000000	99.995435  
1760.000000	99.996123  
1759.000000	99.998088  
1758.000000	100.000193 
1757.000000	100.000995 
1756.000000	100.000201 
1755.000000	99.998791  
1754.000000	99.997733  
1753.000000	99.997287  
1752.000000	99.997388  
1751.000000	99.998069  
1750.000000	99.999017  
1749.000000	99.999364  
1748.000000	99.998778  
1747.000000	99.997757  
1746.000000	99.997094  
1745.000000	99.997342  
1744.000000	99.998524  
1743.000000	100.000136 
1742.000000	100.001317 
1741.000000	100.001392 
1740.000000	100.000481 
1739.000000	99.999411  
1738.000000	99.998795  
1737.000000	99.998750  
1736.000000	99.998985  
1735.000000	99.998931  
1734.000000	99.998663  
1733.000000	99.998547  
1732.000000	99.997971  
1731.000000	99.996472  
1730.000000	99.994620  
1729.000000	99.993480  
1728.000000	99.994063  
1727.000000	99.996408  
1726.000000	99.999636  
1725.000000	100.002626 
1724.000000	100.004527 
1723.000000	100.005034 
1722.000000	100.004361 
1721.000000	100.003432 
1720.000000	100.003325 
1719.000000	100.003940 
1718.000000	100.003574 
1717.000000	100.001028 
1716.000000	99.997776  
1715.000000	99.996485  
1714.000000	99.998247  
1713.000000	100.001559 
1712.000000	100.003704 
1711.000000	100.003223 
1710.000000	100.000828 
1709.000000	99.998484  
1708.000000	99.997462  
1707.000000	99.997154  
1706.000000	99.996124  
1705.000000	99.994518  
1704.000000	99.994537  
1703.000000	99.997915  
1702.000000	100.003867 
1701.000000	100.009522 
1700.000000	100.012445 
1699.000000	100.012303 
1698.000000	100.010104 
1697.000000	100.006744 
1696.000000	100.003294 
1695.000000	100.001675 
1694.000000	100.002184 
1693.000000	100.002820 
1692.000000	100.001919 
1691.000000	99.998988  
1690.000000	99.994435  
1689.000000	99.989570  
1688.000000	99.986122  
1687.000000	99.985525  
1686.000000	99.988085  
1685.000000	99.992332  
1684.000000	99.996064  
1683.000000	99.998388  
1682.000000	99.999755  
1681.000000	100.000420 
1680.000000	100.000079 
1679.000000	99.998758  
1678.000000	99.997661  
1677.000000	99.997930  
1676.000000	99.999261  
1675.000000	100.000408 
1674.000000	100.000791 
1673.000000	100.001104 
1672.000000	100.002355 
1671.000000	100.004726 
1670.000000	100.006975 
1669.000000	100.007307 
1668.000000	100.005046 
1667.000000	100.001319 
1666.000000	99.998163  
1665.000000	99.996973  
1664.000000	99.997801  
1663.000000	99.999731  
1662.000000	100.001671 
1661.000000	100.002883 
1660.000000	100.002722 
1659.000000	100.000701 
1658.000000	99.997249  
1657.000000	99.994277  
1656.000000	99.994054  
1655.000000	99.997319  
1654.000000	100.002388 
1653.000000	100.006808 
1652.000000	100.009255 
1651.000000	100.008772 
1650.000000	100.006167 
1649.000000	100.003322 
1648.000000	100.000415 
1647.000000	99.997431  
1646.000000	99.995684  
1645.000000	99.995994  
1644.000000	99.997078  
1643.000000	99.997508  
1642.000000	99.997029  
1641.000000	99.996454  
1640.000000	99.996754  
1639.000000	99.998097  
1638.000000	99.999560  
1637.000000	99.999887  
1636.000000	99.999096  
1635.000000	99.998995  
1634.000000	100.000398 
1633.000000	100.001873 
1632.000000	100.002525 
1631.000000	100.002343 
1630.000000	100.001161 
1629.000000	99.998925  
1628.000000	99.996549  
1627.000000	99.995601  
1626.000000	99.996561  
1625.000000	99.998220  
1624.000000	99.999122  
1623.000000	99.999334  
1622.000000	99.999939  
1621.000000	100.001186 
1620.000000	100.002419 
1619.000000	100.003173 
1618.000000	100.003134 
1617.000000	100.001987 
1616.000000	99.999978  
1615.000000	99.998022  
1614.000000	99.997109  
1613.000000	99.997674  
1612.000000	99.999214  
1611.000000	100.000536 
1610.000000	100.000650 
1609.000000	99.999478  
1608.000000	99.997957  
1607.000000	99.997382  
1606.000000	99.998245  
1605.000000	99.999861  
1604.000000	100.001134 
1603.000000	100.001529 
1602.000000	100.001032 
1601.000000	99.999639  
1600.000000	99.997589  
1599.000000	99.995733  
1598.000000	99.994885  
1597.000000	99.994722  
1596.000000	99.994044  
1595.000000	99.992397  
1594.000000	99.990868  
1593.000000	99.990889  
1592.000000	99.992684  
1591.000000	99.995238  
1590.000000	99.997295  
1589.000000	99.998110  
1588.000000	99.997606  
1587.000000	99.996370  
1586.000000	99.995295  
1585.000000	99.995022  
1584.000000	99.995574  
1583.000000	99.996441  
1582.000000	99.997063  
1581.000000	99.997177  
1580.000000	99.996988  
1579.000000	99.997053  
1578.000000	99.997918  
1577.000000	99.999684  
1576.000000	100.001989 
1575.000000	100.003753 
1574.000000	100.003684 
1573.000000	100.002116 
1572.000000	100.000673 
1571.000000	100.000431 
1570.000000	100.000930 
1569.000000	100.000730 
1568.000000	99.999371  
1567.000000	99.997965  
1566.000000	99.997632  
1565.000000	99.998169  
1564.000000	99.998719  
1563.000000	99.999045  
1562.000000	99.999577  
1561.000000	100.000025 
1560.000000	99.999340  
1559.000000	99.998022  
1558.000000	99.998593  
1557.000000	100.000689 
1556.000000	100.001798 
1555.000000	100.001611 
1554.000000	100.000824 
1553.000000	100.000497 
1552.000000	100.001078 
1551.000000	100.002044 
1550.000000	100.002203 
1549.000000	100.000925 
1548.000000	99.999135  
1547.000000	99.998270  
1546.000000	99.998829  
1545.000000	99.999945  
1544.000000	100.000345 
1543.000000	99.999933  
1542.000000	100.000043 
1541.000000	100.001750 
1540.000000	100.004343 
1539.000000	100.006060 
1538.000000	100.005749 
1537.000000	100.004020 
1536.000000	100.003012 
1535.000000	100.003858 
1534.000000	100.005639 
1533.000000	100.006503 
1532.000000	100.005447 
1531.000000	100.003009 
1530.000000	100.000225 
1529.000000	99.997701  
1528.000000	99.995673  
1527.000000	99.994420  
1526.000000	99.994536  
1525.000000	99.996514  
1524.000000	99.999858  
1523.000000	100.002957 
1522.000000	100.003796 
1521.000000	100.002036 
1520.000000	99.999842  
1519.000000	99.999175  
1518.000000	100.000054 
1517.000000	100.001091 
1516.000000	100.001028 
1515.000000	99.999965  
1514.000000	99.998711  
1513.000000	99.997765  
1512.000000	99.997155  
1511.000000	99.996798  
1510.000000	99.996570  
1509.000000	99.996159  
1508.000000	99.995035  
1507.000000	99.993350  
1506.000000	99.993333  
1505.000000	99.995740  
1504.000000	99.997934  
1503.000000	99.998893  
1502.000000	99.999440  
1501.000000	99.999994  
1500.000000	100.000572 
1499.000000	100.001202 
1498.000000	100.001750 
1497.000000	100.001471 
1496.000000	99.999805  
1495.000000	99.997453  
1494.000000	99.995965  
1493.000000	99.996187  
1492.000000	99.997123  
1491.000000	99.996648  
1490.000000	99.993824  
1489.000000	99.990508  
1488.000000	99.989546  
1487.000000	99.991912  
1486.000000	99.996210  
1485.000000	100.000153 
1484.000000	100.002158 
1483.000000	100.001921 
1482.000000	100.000074 
1481.000000	99.997546  
1480.000000	99.995338  
1479.000000	99.994257  
1478.000000	99.994623  
1477.000000	99.995931  
1476.000000	99.997138  
1475.000000	99.997604  
1474.000000	99.997653  
1473.000000	99.998141  
1472.000000	99.999347  
1471.000000	100.000512 
1470.000000	100.000711 
1469.000000	99.999772  
1468.000000	99.998015  
1467.000000	99.995837  
1466.000000	99.993745  
1465.000000	99.992596  
1464.000000	99.993090  
1463.000000	99.994952  
1462.000000	99.997107  
1461.000000	99.998556  
1460.000000	99.998778  
1459.000000	99.997695  
1458.000000	99.995674  
1457.000000	99.994083  
1456.000000	99.994453  
1455.000000	99.995844  
1454.000000	99.996741  
1453.000000	99.997535  
1452.000000	99.998869  
1451.000000	100.000452 
1450.000000	100.001389 
1449.000000	100.001139 
1448.000000	100.000005 
1447.000000	99.998655  
1446.000000	99.997480  
1445.000000	99.996802  
1444.000000	99.997060  
1443.000000	99.998548  
1442.000000	100.000790 
1441.000000	100.002726 
1440.000000	100.003597 
1439.000000	100.003203 
1438.000000	100.001302 
1437.000000	99.997645  
1436.000000	99.993178  
1435.000000	99.989589  
1434.000000	99.987856  
1433.000000	99.988306  
1432.000000	99.990694  
1431.000000	99.993687  
1430.000000	99.995288  
1429.000000	99.994562  
1428.000000	99.992896  
1427.000000	99.992512  
1426.000000	99.993915  
1425.000000	99.995658  
1424.000000	99.996428  
1423.000000	99.996780  
1422.000000	99.997816  
1421.000000	99.998995  
1420.000000	99.998519  
1419.000000	99.996009  
1418.000000	99.993611  
1417.000000	99.993311  
1416.000000	99.994907  
1415.000000	99.996953  
1414.000000	99.998191  
1413.000000	99.998138  
1412.000000	99.996978  
1411.000000	99.995329  
1410.000000	99.993942  
1409.000000	99.993169  
1408.000000	99.992796  
1407.000000	99.992552  
1406.000000	99.992633  
1405.000000	99.993539  
1404.000000	99.995263  
1403.000000	99.996963  
1402.000000	99.997657  
1401.000000	99.997081  
1400.000000	99.995736  
1399.000000	99.994442  
1398.000000	99.993834  
1397.000000	99.994112  
1396.000000	99.995219  
1395.000000	99.996750  
1394.000000	99.997666  
1393.000000	99.996858  
1392.000000	99.994427  
1391.000000	99.991984  
1390.000000	99.991253  
1389.000000	99.992401  
1388.000000	99.993899  
1387.000000	99.994301  
1386.000000	99.993761  
1385.000000	99.993302  
1384.000000	99.993367  
1383.000000	99.993819  
1382.000000	99.994496  
1381.000000	99.994969  
1380.000000	99.994332  
1379.000000	99.992261  
1378.000000	99.990186  
1377.000000	99.990309  
1376.000000	99.993210  
1375.000000	99.997036  
1374.000000	99.999324  
1373.000000	99.999352  
1372.000000	99.998249  
1371.000000	99.997397  
1370.000000	99.997476  
1369.000000	99.998413  
1368.000000	99.999423  
1367.000000	99.999418  
1366.000000	99.997892  
1365.000000	99.995420  
1364.000000	99.993059  
1363.000000	99.991473  
1362.000000	99.990865  
1361.000000	99.991236  
1360.000000	99.992095  
1359.000000	99.992391  
1358.000000	99.991581  
1357.000000	99.990605  
1356.000000	99.990888  
1355.000000	99.992132  
1354.000000	99.992166  
1353.000000	99.989753  
1352.000000	99.986619  
1351.000000	99.985676  
1350.000000	99.987701  
1349.000000	99.990850  
1348.000000	99.993245  
1347.000000	99.994699  
1346.000000	99.995642  
1345.000000	99.995860  
1344.000000	99.995223  
1343.000000	99.994588  
1342.000000	99.994799  
1341.000000	99.995229  
1340.000000	99.994430  
1339.000000	99.992205  
1338.000000	99.989933  
1337.000000	99.988738  
1336.000000	99.988524  
1335.000000	99.989001  
1334.000000	99.990476  
1333.000000	99.993077  
1332.000000	99.995833  
1331.000000	99.997207  
1330.000000	99.996487  
1329.000000	99.994374  
1328.000000	99.992250  
1327.000000	99.991031  
1326.000000	99.990635  
1325.000000	99.990481  
1324.000000	99.990480  
1323.000000	99.991212  
1322.000000	99.992919  
1321.000000	99.994718  
1320.000000	99.995304  
1319.000000	99.994283  
1318.000000	99.992337  
1317.000000	99.990237  
1316.000000	99.988343  
1315.000000	99.987064  
1314.000000	99.987003  
1313.000000	99.988276  
1312.000000	99.990129  
1311.000000	99.991586  
1310.000000	99.992243  
1309.000000	99.992302  
1308.000000	99.992193  
1307.000000	99.992398  
1306.000000	99.993316  
1305.000000	99.994916  
1304.000000	99.996561  
1303.000000	99.997272  
1302.000000	99.996294  
1301.000000	99.993685  
1300.000000	99.990624  
1299.000000	99.988800  
1298.000000	99.988991  
1297.000000	99.990353  
1296.000000	99.991643  
1295.000000	99.992901  
1294.000000	99.995065  
1293.000000	99.997941  
1292.000000	99.999664  
1291.000000	99.998762  
1290.000000	99.996040  
1289.000000	99.993707  
1288.000000	99.993160  
1287.000000	99.994320  
1286.000000	99.996634  
1285.000000	99.999680  
1284.000000	100.002662 
1283.000000	100.004196 
1282.000000	100.003247 
1281.000000	100.000283 
1280.000000	99.997255  
1279.000000	99.996257  
1278.000000	99.997851  
1277.000000	100.000527 
1276.000000	100.002010 
1275.000000	100.001271 
1274.000000	99.999163  
1273.000000	99.997082  
1272.000000	99.995541  
1271.000000	99.994356  
1270.000000	99.993709  
1269.000000	99.994251  
1268.000000	99.996127  
1267.000000	99.998355  
1266.000000	99.999305  
1265.000000	99.997751  
1264.000000	99.993692  
1263.000000	99.988471  
1262.000000	99.984049  
1261.000000	99.981815  
1260.000000	99.982044  
1259.000000	99.984331  
1258.000000	99.988063  
1257.000000	99.992292  
1256.000000	99.995734  
1255.000000	99.997567  
1254.000000	99.998019  
1253.000000	99.997700  
1252.000000	99.996615  
1251.000000	99.994519  
1250.000000	99.991997  
1249.000000	99.990260  
1248.000000	99.989730  
1247.000000	99.989611  
1246.000000	99.989216  
1245.000000	99.989041  
1244.000000	99.989983  
1243.000000	99.991855  
1242.000000	99.993286  
1241.000000	99.993005  
1240.000000	99.990868  
1239.000000	99.987785  
1238.000000	99.985094  
1237.000000	99.984006  
1236.000000	99.985131  
1235.000000	99.988046  
1234.000000	99.991290  
1233.000000	99.993133  
1232.000000	99.992775  
1231.000000	99.990995  
1230.000000	99.989527  
1229.000000	99.989593  
1228.000000	99.991038  
1227.000000	99.992816  
1226.000000	99.994057  
1225.000000	99.994453  
1224.000000	99.993958  
1223.000000	99.992728  
1222.000000	99.991459  
1221.000000	99.991202  
1220.000000	99.992349  
1219.000000	99.993920  
1218.000000	99.994266  
1217.000000	99.992697  
1216.000000	99.990340  
1215.000000	99.989196  
1214.000000	99.990255  
1213.000000	99.992492  
1212.000000	99.993756  
1211.000000	99.992670  
1210.000000	99.989787  
1209.000000	99.987077  
1208.000000	99.986452  
1207.000000	99.988565  
1206.000000	99.992495  
1205.000000	99.996332  
1204.000000	99.998309  
1203.000000	99.997834  
1202.000000	99.995733  
1201.000000	99.993608  
1200.000000	99.992861  
1199.000000	99.993844  
1198.000000	99.995415  
1197.000000	99.995506  
1196.000000	99.992905  
1195.000000	99.988734  
1194.000000	99.985585  
1193.000000	99.984817  
1192.000000	99.985262  
1191.000000	99.985044  
1190.000000	99.984066  
1189.000000	99.983952  
1188.000000	99.985839  
1187.000000	99.988982  
1186.000000	99.991468  
1185.000000	99.991758  
1184.000000	99.989690  
1183.000000	99.986735  
1182.000000	99.985267  
1181.000000	99.986784  
1180.000000	99.990429  
1179.000000	99.993600  
1178.000000	99.994200  
1177.000000	99.992173  
1176.000000	99.989161  
1175.000000	99.987187  
1174.000000	99.987337  
1173.000000	99.988920  
1172.000000	99.989945  
1171.000000	99.988997  
1170.000000	99.986520  
1169.000000	99.983729  
1168.000000	99.980858  
1167.000000	99.977707  
1166.000000	99.975509  
1165.000000	99.976295  
1164.000000	99.979827  
1163.000000	99.982983  
1162.000000	99.983503  
1161.000000	99.983038  
1160.000000	99.984857  
1159.000000	99.989330  
1158.000000	99.993321  
1157.000000	99.993806  
1156.000000	99.990697  
1155.000000	99.986268  
1154.000000	99.983183  
1153.000000	99.983034  
1152.000000	99.985269  
1151.000000	99.987115  
1150.000000	99.985803  
1149.000000	99.981613  
1148.000000	99.977910  
1147.000000	99.977633  
1146.000000	99.980487  
1145.000000	99.984067  
1144.000000	99.986838  
1143.000000	99.989019  
1142.000000	99.991050  
1141.000000	99.992296  
1140.000000	99.991521  
1139.000000	99.988319  
1138.000000	99.984047  
1137.000000	99.981270  
1136.000000	99.981721  
1135.000000	99.984437  
1134.000000	99.986473  
1133.000000	99.985972  
1132.000000	99.984044  
1131.000000	99.983062  
1130.000000	99.983737  
1129.000000	99.984834  
1128.000000	99.985411  
1127.000000	99.986074  
1126.000000	99.987782  
1125.000000	99.990436  
1124.000000	99.993188  
1123.000000	99.995538  
1122.000000	99.997508  
1121.000000	99.998962  
1120.000000	99.999108  
1119.000000	99.996790  
1118.000000	99.991578  
1117.000000	99.985055  
1116.000000	99.980693  
1115.000000	99.981326  
1114.000000	99.986223  
1113.000000	99.991406  
1112.000000	99.993309  
1111.000000	99.991549  
1110.000000	99.987950  
1109.000000	99.984154  
1108.000000	99.981166  
1107.000000	99.979976  
1106.000000	99.980762  
1105.000000	99.981797  
1104.000000	99.980968  
1103.000000	99.978617  
1102.000000	99.977342  
1101.000000	99.978578  
1100.000000	99.980820  
1099.000000	99.981870  
1098.000000	99.981538  
1097.000000	99.981037  
1096.000000	99.980967  
1095.000000	99.981224  
1094.000000	99.982024  
1093.000000	99.983348  
1092.000000	99.983893  
1091.000000	99.982377  
1090.000000	99.980009  
1089.000000	99.979909  
1088.000000	99.983366  
1087.000000	99.987857  
1086.000000	99.989594  
1085.000000	99.987295  
1084.000000	99.982783  
1083.000000	99.978827  
1082.000000	99.977459  
1081.000000	99.979756  
1080.000000	99.985688  
1079.000000	99.993457  
1078.000000	99.999713  
1077.000000	100.001409 
1076.000000	99.997938  
1075.000000	99.991613  
1074.000000	99.985960  
1073.000000	99.983210  
1072.000000	99.983128  
1071.000000	99.984095  
1070.000000	99.985159  
1069.000000	99.986841  
1068.000000	99.989820  
1067.000000	99.993032  
1066.000000	99.993633  
1065.000000	99.989479  
1064.000000	99.981824  
1063.000000	99.975026  
1062.000000	99.972843  
1061.000000	99.974970  
1060.000000	99.977797  
1059.000000	99.978489  
1058.000000	99.977536  
1057.000000	99.977203  
1056.000000	99.978564  
1055.000000	99.980806  
1054.000000	99.982613  
1053.000000	99.983304  
1052.000000	99.983103  
1051.000000	99.983186  
1050.000000	99.984752  
1049.000000	99.986932  
1048.000000	99.986488  
1047.000000	99.981125  
1046.000000	99.972554  
1045.000000	99.964888  
1044.000000	99.960707  
1043.000000	99.960051  
1042.000000	99.962394  
1041.000000	99.967272  
1040.000000	99.972732  
1039.000000	99.975663  
1038.000000	99.975057  
1037.000000	99.973404  
1036.000000	99.973532  
1035.000000	99.975450  
1034.000000	99.977566  
1033.000000	99.979478  
1032.000000	99.981633  
1031.000000	99.983240  
1030.000000	99.982726  
1029.000000	99.980187  
1028.000000	99.977671  
1027.000000	99.976870  
1026.000000	99.977751  
1025.000000	99.979430  
1024.000000	99.981212  
1023.000000	99.982689  
1022.000000	99.983901  
1021.000000	99.985355  
1020.000000	99.986930  
1019.000000	99.987022  
1018.000000	99.984119  
1017.000000	99.979275  
1016.000000	99.975718  
1015.000000	99.975616  
1014.000000	99.978161  
1013.000000	99.981000  
1012.000000	99.982587  
1011.000000	99.982923  
1010.000000	99.983024  
1009.000000	99.983910  
1008.000000	99.985302  
1007.000000	99.985268  
1006.000000	99.982226  
1005.000000	99.977474  
1004.000000	99.974499  
1003.000000	99.975359  
1002.000000	99.978734  
1001.000000	99.981792  
1000.000000	99.982767  
999.000000	 99.981410  
998.000000	 99.978530  
997.000000	 99.976072  
996.000000	 99.976267  
995.000000	 99.979317  
994.000000	 99.982686  
993.000000	 99.983817  
992.000000	 99.982801  
991.000000	 99.981319  
990.000000	 99.979913  
989.000000	 99.977960  
988.000000	 99.975928  
987.000000	 99.975881  
986.000000	 99.979343  
985.000000	 99.985608  
984.000000	 99.992300  
983.000000	 99.996839  
982.000000	 99.997588  
981.000000	 99.994803  
980.000000	 99.990738  
979.000000	 99.987887  
978.000000	 99.986793  
977.000000	 99.986207  
976.000000	 99.985444  
975.000000	 99.985468  
974.000000	 99.987162  
973.000000	 99.989404  
972.000000	 99.989771  
971.000000	 99.986922  
970.000000	 99.981929  
969.000000	 99.977479  
968.000000	 99.975985  
967.000000	 99.977948  
966.000000	 99.981654  
965.000000	 99.984679  
964.000000	 99.986014  
963.000000	 99.986565  
962.000000	 99.987487  
961.000000	 99.988562  
960.000000	 99.988749  
959.000000	 99.987997  
958.000000	 99.987726  
957.000000	 99.989251  
956.000000	 99.992051  
955.000000	 99.993871  
954.000000	 99.992538  
953.000000	 99.987782  
952.000000	 99.981600  
951.000000	 99.976888  
950.000000	 99.975268  
949.000000	 99.975794  
948.000000	 99.975932  
947.000000	 99.974227  
946.000000	 99.972014  
945.000000	 99.972015  
944.000000	 99.975140  
943.000000	 99.979256  
942.000000	 99.981490  
941.000000	 99.981186  
940.000000	 99.980024  
939.000000	 99.979825  
938.000000	 99.981319  
937.000000	 99.984752  
936.000000	 99.990171  
935.000000	 99.996438  
934.000000	 100.001043 
933.000000	 100.001986 
932.000000	 99.999634  
931.000000	 99.996225  
930.000000	 99.993829  
929.000000	 99.993045  
928.000000	 99.993159  
927.000000	 99.993067  
926.000000	 99.992345  
925.000000	 99.991736  
924.000000	 99.992118  
923.000000	 99.992844  
922.000000	 99.992065  
921.000000	 99.989264  
920.000000	 99.986394  
919.000000	 99.985390  
918.000000	 99.985405  
917.000000	 99.984063  
916.000000	 99.981192  
915.000000	 99.979643  
914.000000	 99.981912  
913.000000	 99.987018  
912.000000	 99.991317  
911.000000	 99.991913  
910.000000	 99.989023  
909.000000	 99.985549  
908.000000	 99.984490  
907.000000	 99.986366  
906.000000	 99.988960  
905.000000	 99.989842  
904.000000	 99.988863  
903.000000	 99.987727  
902.000000	 99.987695  
901.000000	 99.988549  
900.000000	 99.989467  
899.000000	 99.989748  
898.000000	 99.988792  
897.000000	 99.986522  
896.000000	 99.983890  
895.000000	 99.981804  
894.000000	 99.979501  
893.000000	 99.975428  
892.000000	 99.970162  
891.000000	 99.966977  
890.000000	 99.968508  
889.000000	 99.973751  
888.000000	 99.979249  
887.000000	 99.982535  
886.000000	 99.983572  
885.000000	 99.983545  
884.000000	 99.983385  
883.000000	 99.983269  
882.000000	 99.982632  
881.000000	 99.980516  
880.000000	 99.976392  
879.000000	 99.970777  
878.000000	 99.965181  
877.000000	 99.961771  
876.000000	 99.962494  
875.000000	 99.967102  
874.000000	 99.971942  
873.000000	 99.972586  
872.000000	 99.968681  
871.000000	 99.964753  
870.000000	 99.964927  
869.000000	 99.968242  
868.000000	 99.970953  
867.000000	 99.972303  
866.000000	 99.975473  
865.000000	 99.982743  
864.000000	 99.991961  
863.000000	 99.998699  
862.000000	 100.000347 
861.000000	 99.997114  
860.000000	 99.990613  
859.000000	 99.983133  
858.000000	 99.977407  
857.000000	 99.974986  
856.000000	 99.974690  
855.000000	 99.974180  
854.000000	 99.973387  
853.000000	 99.974774  
852.000000	 99.979299  
851.000000	 99.983613  
850.000000	 99.983088  
849.000000	 99.977383  
848.000000	 99.971309  
847.000000	 99.969649  
846.000000	 99.972188  
845.000000	 99.974570  
844.000000	 99.973485  
843.000000	 99.970324  
842.000000	 99.969877  
841.000000	 99.975580  
840.000000	 99.985610  
839.000000	 99.993432  
838.000000	 99.993025  
837.000000	 99.984451  
836.000000	 99.974115  
835.000000	 99.968926  
834.000000	 99.970048  
833.000000	 99.972549  
832.000000	 99.970941  
831.000000	 99.964565  
830.000000	 99.957580  
829.000000	 99.954108  
828.000000	 99.953913  
827.000000	 99.953415  
826.000000	 99.951044  
825.000000	 99.950127  
824.000000	 99.954623  
823.000000	 99.962720  
822.000000	 99.967790  
821.000000	 99.966417  
820.000000	 99.962563  
819.000000	 99.962438  
818.000000	 99.967361  
817.000000	 99.973206  
816.000000	 99.975691  
815.000000	 99.974621  
814.000000	 99.973350  
813.000000	 99.975361  
812.000000	 99.981276  
811.000000	 99.988198  
810.000000	 99.991953  
809.000000	 99.990678  
808.000000	 99.986098  
807.000000	 99.981047  
806.000000	 99.976659  
805.000000	 99.972716  
804.000000	 99.969515  
803.000000	 99.967706  
802.000000	 99.966943  
801.000000	 99.966345  
800.000000	 99.965960  
799.000000	 99.966362  
798.000000	 99.967334  
797.000000	 99.968519  
796.000000	 99.970711  
795.000000	 99.974438  
794.000000	 99.977769  
793.000000	 99.977988  
792.000000	 99.975554  
791.000000	 99.973906  
790.000000	 99.974860  
789.000000	 99.976646  
788.000000	 99.977364  
787.000000	 99.977964  
786.000000	 99.980185  
785.000000	 99.983270  
784.000000	 99.984472  
783.000000	 99.982046  
782.000000	 99.976712  
781.000000	 99.970986  
780.000000	 99.967544  
779.000000	 99.967122  
778.000000	 99.967621  
777.000000	 99.966555  
776.000000	 99.964454  
775.000000	 99.963936  
774.000000	 99.965342  
773.000000	 99.966055  
772.000000	 99.964831  
771.000000	 99.963586  
770.000000	 99.963241  
769.000000	 99.961284  
768.000000	 99.956360  
767.000000	 99.952329  
766.000000	 99.953829  
765.000000	 99.959414  
764.000000	 99.963090  
763.000000	 99.962011  
762.000000	 99.959061  
761.000000	 99.958188  
760.000000	 99.960672  
759.000000	 99.965962  
758.000000	 99.972584  
757.000000	 99.977547  
756.000000	 99.978171  
755.000000	 99.975800  
754.000000	 99.975221  
753.000000	 99.979287  
752.000000	 99.986073  
751.000000	 99.991885  
750.000000	 99.994706  
749.000000	 99.994082  
748.000000	 99.990327  
747.000000	 99.985177  
746.000000	 99.980981  
745.000000	 99.977848  
744.000000	 99.973631  
743.000000	 99.967994  
742.000000	 99.964185  
741.000000	 99.964940  
740.000000	 99.968534  
739.000000	 99.970973  
738.000000	 99.970672  
737.000000	 99.968989  
736.000000	 99.967482  
735.000000	 99.966835  
734.000000	 99.967696  
733.000000	 99.970520  
732.000000	 99.974660  
731.000000	 99.978842  
730.000000	 99.982232  
729.000000	 99.984302  
728.000000	 99.984386  
727.000000	 99.982352  
726.000000	 99.978900  
725.000000	 99.974226  
724.000000	 99.967555  
723.000000	 99.959336  
722.000000	 99.952681  
721.000000	 99.950872  
720.000000	 99.953942  
719.000000	 99.959520  
718.000000	 99.966309  
717.000000	 99.974074  
716.000000	 99.981112  
715.000000	 99.984701  
714.000000	 99.984181  
713.000000	 99.981506  
712.000000	 99.978492  
711.000000	 99.975463  
710.000000	 99.972685  
709.000000	 99.971027  
708.000000	 99.970628  
707.000000	 99.970507  
706.000000	 99.970196  
705.000000	 99.970258  
704.000000	 99.970791  
703.000000	 99.971269  
702.000000	 99.972162  
701.000000	 99.974636  
700.000000	 99.977957  
699.000000	 99.978877  
698.000000	 99.974862  
697.000000	 99.966804  
696.000000	 99.957823  
695.000000	 99.950911  
694.000000	 99.947905  
693.000000	 99.948819  
692.000000	 99.951324  
691.000000	 99.952518  
690.000000	 99.952571  
689.000000	 99.954472  
688.000000	 99.958405  
687.000000	 99.959510  
686.000000	 99.954432  
685.000000	 99.947887  
684.000000	 99.948541  
683.000000	 99.958803  
682.000000	 99.970879  
681.000000	 99.976713  
680.000000	 99.971254  
679.000000	 99.963538  
678.000000	 99.951404  
677.000000	 99.955460  
676.000000	 99.996347  
675.000000	 99.986457  
674.000000	 99.983892  
673.000000	 99.978275  
672.000000	 99.975790  
671.000000	 99.973270  
670.000000	 99.972160  
669.000000	 99.972871  
668.000000	 99.976533  
667.000000	 99.980659  
666.000000	 99.984150  
665.000000	 99.989665  
664.000000	 99.997855  
663.000000	 100.009505 
662.000000	 100.018857 
661.000000	 100.029593 
660.000000	 100.027804 
659.000000	 99.993695  
658.000000	 99.988689  
657.000000	 99.974690  
656.000000	 99.964159  
655.000000	 99.956739  
654.000000	 99.954384  
653.000000	 99.953031  
652.000000	 99.950342  
651.000000	 99.945761  
650.000000	 99.941318  
649.000000	 99.938840  
648.000000	 99.937596  
647.000000	 99.935491  
646.000000	 99.932778  
645.000000	 99.932448  
644.000000	 99.936241  
643.000000	 99.941808  
642.000000	 99.945067  
641.000000	 99.944865  
640.000000	 99.943642  
639.000000	 99.943998  
638.000000	 99.946533  
637.000000	 99.950664  
636.000000	 99.955619  
635.000000	 99.960698  
634.000000	 99.965939  
633.000000	 99.972077  
632.000000	 99.978076  
631.000000	 99.979189  
630.000000	 99.970510  
629.000000	 99.953500  
628.000000	 99.936649  
627.000000	 99.928321  
626.000000	 99.929799  
625.000000	 99.935944  
624.000000	 99.941670  
623.000000	 99.946081  
622.000000	 99.950925  
621.000000	 99.957181  
620.000000	 99.963931  
619.000000	 99.969629  
618.000000	 99.973590  
617.000000	 99.976033  
616.000000	 99.976869  
615.000000	 99.975343  
614.000000	 99.971432  
613.000000	 99.966213  
612.000000	 99.959583  
611.000000	 99.949217  
610.000000	 99.934462  
609.000000	 99.920228  
608.000000	 99.913044  
607.000000	 99.912681  
606.000000	 99.911997  
605.000000	 99.907118  
604.000000	 99.903164  
603.000000	 99.906383  
602.000000	 99.915182  
601.000000	 99.924085  
600.000000	 99.932656  
599.000000	 99.943912  
598.000000	 99.955972  
597.000000	 99.963148  
596.000000	 99.965895  
595.000000	 99.971913  
594.000000	 99.984158  
593.000000	 99.994239  
592.000000	 99.992922  
591.000000	 99.982223  
590.000000	 99.970613  
589.000000	 99.959749  
588.000000	 99.944802  
587.000000	 99.927428  
586.000000	 99.918920  
585.000000	 99.926314  
584.000000	 99.941837  
583.000000	 99.951341  
582.000000	 99.949694  
581.000000	 99.943205  
580.000000	 99.939291  
579.000000	 99.939787  
578.000000	 99.943705  
577.000000	 99.950258  
576.000000	 99.957152  
575.000000	 99.960654  
574.000000	 99.960633  
573.000000	 99.962048  
572.000000	 99.968081  
571.000000	 99.974341  
570.000000	 99.973774  
569.000000	 99.966387  
568.000000	 99.959829  
567.000000	 99.960026  
566.000000	 99.964785  
565.000000	 99.967609  
564.000000	 99.964762  
563.000000	 99.957431  
562.000000	 99.949688  
561.000000	 99.945633  
560.000000	 99.946302  
559.000000	 99.947775  
558.000000	 99.944118  
557.000000	 99.933991  
556.000000	 99.922672  
555.000000	 99.916211  
554.000000	 99.915122  
553.000000	 99.914673  
552.000000	 99.909241  
551.000000	 99.895366  
550.000000	 99.874424  
549.000000	 99.855360  
548.000000	 99.851278  
547.000000	 99.867706  
546.000000	 99.894085  
545.000000	 99.911654  
544.000000	 99.911130  
543.000000	 99.899642  
542.000000	 99.890644  
541.000000	 99.890319  
540.000000	 99.894332  
539.000000	 99.894895  
538.000000	 99.889907  
537.000000	 99.886246  
536.000000	 99.892861  
535.000000	 99.908688  
534.000000	 99.919824  
533.000000	 99.913748  
532.000000	 99.894713  
531.000000	 99.879705  
530.000000	 99.879414  
529.000000	 99.889164  
528.000000	 99.899571  
527.000000	 99.907575  
526.000000	 99.912761  
525.000000	 99.910890  
524.000000	 99.899400  
523.000000	 99.885093  
522.000000	 99.878488  
521.000000	 99.881683  
520.000000	 99.887069  
519.000000	 99.887415  
518.000000	 99.882131  
517.000000	 99.873172  
516.000000	 99.860951  
515.000000	 99.847584  
514.000000	 99.840333  
513.000000	 99.847475  
512.000000	 99.870161  
511.000000	 99.899576  
510.000000	 99.923853  
509.000000	 99.938253  
508.000000	 99.945541  
507.000000	 99.945381  
506.000000	 99.928670  
505.000000	 99.889446  
504.000000	 99.841084  
503.000000	 99.811817  
502.000000	 99.817658  
501.000000	 99.843934  
500.000000	 99.863658  
499.000000	 99.868019  
498.000000	 99.867797  
497.000000	 99.871202  
496.000000	 99.872457  
495.000000	 99.862992  
494.000000	 99.844546  
493.000000	 99.826804  
492.000000	 99.818277  
491.000000	 99.822613  
490.000000	 99.837532  
489.000000	 99.854002  
488.000000	 99.861191  
487.000000	 99.856352  
486.000000	 99.846485  
485.000000	 99.837009  
484.000000	 99.824201  
483.000000	 99.804064  
482.000000	 99.783105  
481.000000	 99.772127  
480.000000	 99.771811  
479.000000	 99.772633  
478.000000	 99.770121  
477.000000	 99.773946  
476.000000	 99.797025  
475.000000	 99.837513  
474.000000	 99.875371  
473.000000	 99.887878  
472.000000	 99.867484  
471.000000	 99.824885  
470.000000	 99.777317  
469.000000	 99.739491  
468.000000	 99.724592  
467.000000	 99.741848  
466.000000	 99.786567  
465.000000	 99.840716  
464.000000	 99.886233  
463.000000	 99.910466  
462.000000	 99.901418  
461.000000	 99.850951  
460.000000	 99.771977  
459.000000	 99.703392  
458.000000	 99.685564  
457.000000	 99.709224  
456.000000	 99.717701  
455.000000	 99.694712  
454.000000	 99.632612  
453.000000	 99.575017  
452.000000	 99.558082  
451.000000	 99.588390  
450.000000	 99.639081  

